Data from HR4D30811__10__00010.txt Node

Date: Fri Jan 26 16:32:46 MST 2024
User: Brock
Spectrometer: HR4D3081
Trigger mode: 4
Integration Time (sec): 8.000000E0
Scans to average: 1
Electric dark correction enabled: true
Nonlinearity correction enabled: false
Boxcar width: 0
XAxis mode: Wavelengths
Number of Pixels in Spectrum: 3648
>>>>>Begin Spectral Data<<<<<
197.25	-1185.08
197.385	-1185.08
197.519	-1185.08
197.653	-1207.08
197.787	187.92
197.922	-124.08
198.056	77.92
198.19	-6.08
198.324	-7.08
198.459	-177.08
198.593	417.92
198.727	-33.08
198.861	-88.08
198.996	219.92
199.13	-283.08
199.264	-210.08
199.398	-67.08
199.533	279.92
199.667	126.92
199.801	-88.08
199.935	-268.08
200.07	-36.08
200.204	2.92
200.338	-197.08
200.472	-168.08
200.606	-332.08
200.741	-148.08
200.875	-148.08
201.009	-127.08
201.143	-224.08
201.277	86.92
201.412	114.92
201.546	205.92
201.68	173.92
201.814	-183.08
201.948	72.92
202.082	-66.08
202.217	-311.08
202.351	-117.08
202.485	-46.08
202.619	-289.08
202.753	-337.08
202.887	265.92
203.021	124.92
203.156	236.92
203.29	25.92
203.424	-18.08
203.558	-191.08
203.692	-65.08
203.826	-283.08
203.96	-113.08
204.094	173.92
204.229	-164.08
204.363	-201.08
204.497	-335.08
204.631	-263.08
204.765	-210.08
204.899	-139.08
205.033	-112.08
205.167	-222.08
205.301	13.92
205.435	-327.08
205.569	-74.08
205.704	-81.08
205.838	-296.08
205.972	-141.08
206.106	516.92
206.24	-162.08
206.374	-220.08
206.508	54.92
206.642	36.92
206.776	-131.08
206.91	154.92
207.044	2.92
207.178	122.92
207.312	-35.08
207.446	-138.08
207.58	-179.08
207.714	-294.08
207.848	135.92
207.982	-367.08
208.116	21.92
208.25	-220.08
208.384	-154.08
208.518	-186.08
208.652	-211.08
208.786	-259.08
208.92	222.92
209.054	-45.08
209.188	-285.08
209.322	-140.08
209.456	-118.08
209.59	-260.08
209.724	-92.08
209.858	-22.08
209.992	-115.08
210.126	-170.08
210.26	-153.08
210.394	-59.08
210.528	-25.08
210.662	-211.08
210.796	-159.08
210.929	123.92
211.063	-4.08
211.197	-82.08
211.331	-18.08
211.465	-199.08
211.599	50.92
211.733	117.92
211.867	-175.08
212.001	-180.08
212.135	-57.08
212.269	-229.08
212.402	-200.08
212.536	84.92
212.67	-108.08
212.804	-262.08
212.938	36.92
213.072	-215.08
213.206	-83.08
213.34	-161.08
213.473	-132.08
213.607	77.92
213.741	-265.08
213.875	-304.08
214.009	-227.08
214.143	-166.08
214.277	-127.08
214.41	-242.08
214.544	221.92
214.678	131.92
214.812	220.92
214.946	-246.08
215.08	-186.08
215.213	-207.08
215.347	-112.08
215.481	-110.08
215.615	-330.08
215.749	45.92
215.882	-221.08
216.016	-281.08
216.15	98.92
216.284	161.92
216.418	-21.08
216.551	90.92
216.685	32.92
216.819	-273.08
216.953	-140.08
217.086	267.92
217.22	-163.08
217.354	-24.08
217.488	62.92
217.621	107.92
217.755	-23.08
217.889	-129.08
218.023	-89.08
218.156	88.92
218.29	105.92
218.424	202.92
218.558	-233.08
218.691	-369.08
218.825	-114.08
218.959	438.92
219.092	-117.08
219.226	-349.08
219.36	-283.08
219.494	-22.08
219.627	-192.08
219.761	-203.08
219.895	-120.08
220.028	-321.08
220.162	550.92
220.296	146.92
220.429	-12.08
220.563	-78.08
220.697	-14.08
220.83	-205.08
220.964	-161.08
221.098	-238.08
221.231	-279.08
221.365	51.92
221.499	-206.08
221.632	-233.08
221.766	32.92
221.9	-113.08
222.033	70.92
222.167	85.92
222.3	-184.08
222.434	-18.08
222.568	243.92
222.701	-189.08
222.835	-128.08
222.968	-209.08
223.102	-223.08
223.236	-234.08
223.369	-10.08
223.503	6.92
223.636	-249.08
223.77	-173.08
223.904	-11.08
224.037	-164.08
224.171	87.92
224.304	32.92
224.438	-164.08
224.571	-105.08
224.705	159.92
224.839	-51.08
224.972	-306.08
225.106	-38.08
225.239	-107.08
225.373	77.92
225.506	-52.08
225.64	36.92
225.773	-145.08
225.907	-199.08
226.04	-301.08
226.174	-124.08
226.307	-40.08
226.441	-167.08
226.575	6.92
226.708	151.92
226.842	-88.08
226.975	-152.08
227.109	-210.08
227.242	13.92
227.375	39.92
227.509	-41.08
227.642	-180.08
227.776	36.92
227.909	73.92
228.043	-232.08
228.176	216.92
228.31	-242.08
228.443	340.92
228.577	-85.08
228.71	-127.08
228.844	7.92
228.977	-265.08
229.111	-178.08
229.244	60.92
229.377	-313.08
229.511	-52.08
229.644	-176.08
229.778	-161.08
229.911	-176.08
230.044	-115.08
230.178	-25.08
230.311	-200.08
230.445	32.92
230.578	-192.08
230.711	-110.08
230.845	327.92
230.978	35.92
231.112	-222.08
231.245	-280.08
231.378	-249.08
231.512	48.92
231.645	-390.08
231.779	-317.08
231.912	-39.08
232.045	59.92
232.179	-158.08
232.312	-127.08
232.445	67.92
232.579	240.92
232.712	164.92
232.845	-209.08
232.979	-363.08
233.112	27.92
233.245	-98.08
233.379	-266.08
233.512	-33.08
233.645	-249.08
233.779	-242.08
233.912	3.92
234.045	-152.08
234.179	27.92
234.312	-131.08
234.445	25.92
234.578	-28.08
234.712	8.92
234.845	50.92
234.978	-187.08
235.112	-44.08
235.245	111.92
235.378	-189.08
235.511	-31.08
235.645	31.92
235.778	-5.08
235.911	-153.08
236.044	-293.08
236.178	288.92
236.311	-249.08
236.444	-262.08
236.577	-236.08
236.711	-55.08
236.844	-380.08
236.977	-149.08
237.11	-228.08
237.243	15.92
237.377	-299.08
237.51	-244.08
237.643	924.92
237.776	-164.08
237.909	-145.08
238.043	-15.08
238.176	-248.08
238.309	-63.08
238.442	-308.08
238.575	-81.08
238.709	408.92
238.842	5.92
238.975	-19.08
239.108	201.92
239.241	-283.08
239.374	-216.08
239.508	-180.08
239.641	192.92
239.774	358.92
239.907	-44.08
240.04	-271.08
240.173	29.92
240.306	223.92
240.44	-165.08
240.573	161.92
240.706	-151.08
240.839	19.92
240.972	-72.08
241.105	-74.08
241.238	25.92
241.371	-45.08
241.504	-90.08
241.638	-134.08
241.771	-27.08
241.904	-141.08
242.037	32.92
242.17	-192.08
242.303	-290.08
242.436	-71.08
242.569	-114.08
242.702	-199.08
242.835	-144.08
242.968	-20.08
243.101	-130.08
243.234	-213.08
243.367	-262.08
243.5	-142.08
243.634	-180.08
243.767	-277.08
243.9	-216.08
244.033	-237.08
244.166	77.92
244.299	-332.08
244.432	-244.08
244.565	-9.08
244.698	-328.08
244.831	-192.08
244.964	-256.08
245.097	-201.08
245.23	-27.08
245.363	161.92
245.496	-293.08
245.629	-136.08
245.762	459.92
245.895	-250.08
246.028	-213.08
246.161	453.92
246.294	40.92
246.427	-217.08
246.559	89.92
246.692	-46.08
246.825	-178.08
246.958	-246.08
247.091	-275.08
247.224	-330.08
247.357	-206.08
247.49	148.92
247.623	-183.08
247.756	-270.08
247.889	298.92
248.022	-112.08
248.155	-285.08
248.288	-111.08
248.421	-233.08
248.553	70.92
248.686	-224.08
248.819	77.92
248.952	-257.08
249.085	187.92
249.218	-39.08
249.351	-78.08
249.484	157.92
249.617	-79.08
249.749	-252.08
249.882	-211.08
250.015	-249.08
250.148	-158.08
250.281	-248.08
250.414	-180.08
250.547	-155.08
250.679	160.92
250.812	-105.08
250.945	-12.08
251.078	-231.08
251.211	-174.08
251.344	-298.08
251.476	-180.08
251.609	0.92
251.742	-257.08
251.875	-43.08
252.008	-235.08
252.14	-351.08
252.273	-97.08
252.406	187.92
252.539	-30.08
252.672	-90.08
252.804	125.92
252.937	-251.08
253.07	-49.08
253.203	-109.08
253.335	103.92
253.468	-354.08
253.601	-156.08
253.734	-80.08
253.866	-140.08
253.999	378.92
254.132	-5.08
254.265	-179.08
254.397	-155.08
254.53	-154.08
254.663	6.92
254.796	-198.08
254.928	-259.08
255.061	-235.08
255.194	-42.08
255.327	-293.08
255.459	-45.08
255.592	-275.08
255.725	180.92
255.857	-204.08
255.99	-21.08
256.123	-233.08
256.255	-268.08
256.388	-65.08
256.521	-243.08
256.653	-297.08
256.786	-226.08
256.919	-168.08
257.051	-264.08
257.184	-65.08
257.317	-212.08
257.449	-232.08
257.582	-74.08
257.715	-211.08
257.847	-255.08
257.98	-109.08
258.113	-187.08
258.245	-132.08
258.378	-361.08
258.51	-274.08
258.643	-264.08
258.776	47.92
258.908	-299.08
259.041	-68.08
259.174	-202.08
259.306	-192.08
259.439	-287.08
259.571	-198.08
259.704	-78.08
259.837	136.92
259.969	-211.08
260.102	-212.08
260.234	226.92
260.367	85.92
260.499	-259.08
260.632	-148.08
260.765	-219.08
260.897	-201.08
261.03	-235.08
261.162	-108.08
261.295	-57.08
261.427	98.92
261.56	-74.08
261.692	-253.08
261.825	-87.08
261.957	95.92
262.09	78.92
262.222	-7.08
262.355	-255.08
262.487	-124.08
262.62	-272.08
262.752	-91.08
262.885	-177.08
263.017	31.92
263.15	-181.08
263.282	-55.08
263.415	-274.08
263.547	-64.08
263.68	214.92
263.812	-321.08
263.945	-111.08
264.077	-268.08
264.21	150.92
264.342	-268.08
264.475	-233.08
264.607	199.92
264.74	-389.08
264.872	-111.08
265.004	116.92
265.137	54.92
265.269	343.92
265.402	-245.08
265.534	-168.08
265.667	-169.08
265.799	51.92
265.931	-90.08
266.064	6.92
266.196	-128.08
266.329	-205.08
266.461	-184.08
266.593	41.92
266.726	-317.08
266.858	-139.08
266.99	-127.08
267.123	-172.08
267.255	-73.08
267.388	-152.08
267.52	-289.08
267.652	-219.08
267.785	124.92
267.917	-37.08
268.049	-147.08
268.182	390.92
268.314	58.92
268.446	-332.08
268.579	-233.08
268.711	209.92
268.843	-228.08
268.976	-75.08
269.108	360.92
269.24	150.92
269.373	-19.08
269.505	-133.08
269.637	-150.08
269.77	-215.08
269.902	139.92
270.034	-283.08
270.167	39.92
270.299	12.92
270.431	-0.08
270.563	-207.08
270.696	9.92
270.828	-89.08
270.96	-90.08
271.092	8.92
271.225	-239.08
271.357	-71.08
271.489	-180.08
271.621	-250.08
271.754	544.92
271.886	-220.08
272.018	-201.08
272.15	280.92
272.283	-280.08
272.415	-152.08
272.547	80.92
272.679	76.92
272.811	-115.08
272.944	-113.08
273.076	-341.08
273.208	-43.08
273.34	-98.08
273.473	-158.08
273.605	92.92
273.737	-284.08
273.869	-46.08
274.001	-396.08
274.133	30.92
274.266	-205.08
274.398	1449.92
274.53	40.92
274.662	123.92
274.794	9.92
274.926	67.92
275.059	-199.08
275.191	8.92
275.323	-240.08
275.455	84.92
275.587	-211.08
275.719	-168.08
275.851	-120.08
275.983	29.92
276.116	-24.08
276.248	119.92
276.38	-274.08
276.512	-16.08
276.644	-170.08
276.776	-231.08
276.908	-55.08
277.04	-127.08
277.172	15.92
277.304	-174.08
277.437	-17.08
277.569	-206.08
277.701	-262.08
277.833	-98.08
277.965	-202.08
278.097	37.92
278.229	-155.08
278.361	-159.08
278.493	129.92
278.625	201.92
278.757	19.92
278.889	-261.08
279.021	-178.08
279.153	506.92
279.285	-243.08
279.417	546.92
279.549	70.92
279.681	-114.08
279.813	-182.08
279.945	49.92
280.077	-222.08
280.209	1107.92
280.341	-273.08
280.473	-124.08
280.605	78.92
280.737	-6.08
280.869	199.92
281.001	-75.08
281.133	-347.08
281.265	-36.08
281.397	-150.08
281.529	302.92
281.661	-280.08
281.793	-351.08
281.925	-240.08
282.057	-127.08
282.189	-139.08
282.321	-24.08
282.453	-4.08
282.585	-237.08
282.717	150.92
282.849	-90.08
282.98	-166.08
283.112	-223.08
283.244	-16.08
283.376	-257.08
283.508	-368.08
283.64	-239.08
283.772	88.92
283.904	97.92
284.036	-278.08
284.168	130.92
284.299	-44.08
284.431	-17.08
284.563	-139.08
284.695	-141.08
284.827	-234.08
284.959	-15.08
285.091	-252.08
285.222	-270.08
285.354	-184.08
285.486	-116.08
285.618	-247.08
285.75	-123.08
285.882	147.92
286.013	55.92
286.145	-62.08
286.277	0.92
286.409	67.92
286.541	83.92
286.673	-225.08
286.804	-209.08
286.936	-41.08
287.068	-250.08
287.2	-237.08
287.332	311.92
287.463	-298.08
287.595	-55.08
287.727	413.92
287.859	-136.08
287.99	-118.08
288.122	-210.08
288.254	23.92
288.386	-152.08
288.517	-283.08
288.649	-181.08
288.781	-16.08
288.913	5.92
289.044	-306.08
289.176	171.92
289.308	-166.08
289.44	-336.08
289.571	-236.08
289.703	-253.08
289.835	64.92
289.967	-252.08
290.098	-327.08
290.23	-318.08
290.362	98.92
290.493	-327.08
290.625	-195.08
290.757	-169.08
290.888	-138.08
291.02	-40.08
291.152	-23.08
291.283	-1.08
291.415	-106.08
291.547	-259.08
291.678	-205.08
291.81	-53.08
291.942	268.92
292.073	-17.08
292.205	-294.08
292.337	77.92
292.468	475.92
292.6	-180.08
292.732	590.92
292.863	-224.08
292.995	-333.08
293.126	47.92
293.258	152.92
293.39	-268.08
293.521	-245.08
293.653	-300.08
293.785	71.92
293.916	-133.08
294.048	15.92
294.179	12.92
294.311	-239.08
294.442	50.92
294.574	-271.08
294.706	-107.08
294.837	91.92
294.969	-59.08
295.1	-181.08
295.232	-247.08
295.363	195.92
295.495	-200.08
295.627	-10.08
295.758	138.92
295.89	-319.08
296.021	32.92
296.153	48.92
296.284	-86.08
296.416	-118.08
296.547	-167.08
296.679	-61.08
296.81	-60.08
296.942	-351.08
297.073	-275.08
297.205	-279.08
297.336	-153.08
297.468	-226.08
297.599	-105.08
297.731	-335.08
297.862	-120.08
297.994	-307.08
298.125	-263.08
298.257	-114.08
298.388	42.92
298.52	28.92
298.651	-89.08
298.782	239.92
298.914	-219.08
299.045	-158.08
299.177	-277.08
299.308	-292.08
299.44	46.92
299.571	-54.08
299.702	-173.08
299.834	-116.08
299.965	-139.08
300.097	-215.08
300.228	-35.08
300.36	-80.08
300.491	-100.08
300.622	-7.08
300.754	-129.08
300.885	-234.08
301.017	-79.08
301.148	-178.08
301.279	-324.08
301.411	17.92
301.542	-5.08
301.673	-29.08
301.805	13.92
301.936	-219.08
302.067	-161.08
302.199	-175.08
302.33	-262.08
302.461	311.92
302.593	14.92
302.724	-6.08
302.855	-316.08
302.987	-117.08
303.118	-279.08
303.249	-367.08
303.381	-135.08
303.512	-245.08
303.643	-229.08
303.775	125.92
303.906	-276.08
304.037	-246.08
304.169	-196.08
304.3	-156.08
304.431	-291.08
304.562	-201.08
304.694	-163.08
304.825	-56.08
304.956	112.92
305.087	-187.08
305.219	17.92
305.35	-75.08
305.481	-227.08
305.612	30.92
305.744	-16.08
305.875	-161.08
306.006	523.92
306.137	-202.08
306.269	-55.08
306.4	65.92
306.531	102.92
306.662	-154.08
306.794	135.92
306.925	-231.08
307.056	-253.08
307.187	-52.08
307.318	-128.08
307.45	-164.08
307.581	-223.08
307.712	-250.08
307.843	-122.08
307.974	-89.08
308.105	97.92
308.237	-57.08
308.368	-294.08
308.499	-174.08
308.63	2.92
308.761	-109.08
308.892	-108.08
309.024	-137.08
309.155	-187.08
309.286	-180.08
309.417	-263.08
309.548	-170.08
309.679	-157.08
309.81	-412.08
309.941	442.92
310.073	-52.08
310.204	-334.08
310.335	-16.08
310.466	-178.08
310.597	-245.08
310.728	-184.08
310.859	350.92
310.99	311.92
311.121	-112.08
311.252	-102.08
311.383	-248.08
311.514	-28.08
311.646	-175.08
311.777	-50.08
311.908	-43.08
312.039	-141.08
312.17	-342.08
312.301	-143.08
312.432	-217.08
312.563	-328.08
312.694	-75.08
312.825	-161.08
312.956	-235.08
313.087	41.92
313.218	76.92
313.349	-129.08
313.48	-316.08
313.611	-148.08
313.742	-81.08
313.873	35.92
314.004	-46.08
314.135	-176.08
314.266	-59.08
314.397	-170.08
314.528	-266.08
314.659	-273.08
314.79	-206.08
314.921	26.92
315.052	12.92
315.183	-267.08
315.314	-298.08
315.445	54.92
315.576	-55.08
315.707	-127.08
315.838	-172.08
315.968	-14.08
316.099	-288.08
316.23	-316.08
316.361	110.92
316.492	-123.08
316.623	56.92
316.754	147.92
316.885	-368.08
317.016	-304.08
317.147	-347.08
317.278	63.92
317.408	-254.08
317.539	-301.08
317.67	-283.08
317.801	-31.08
317.932	-166.08
318.063	-208.08
318.194	-169.08
318.325	-21.08
318.455	-360.08
318.586	-135.08
318.717	-42.08
318.848	-334.08
318.979	66.92
319.11	249.92
319.24	38.92
319.371	59.92
319.502	-97.08
319.633	-243.08
319.764	-135.08
319.895	-239.08
320.025	-81.08
320.156	-330.08
320.287	-416.08
320.418	-222.08
320.549	-81.08
320.679	-331.08
320.81	150.92
320.941	-351.08
321.072	-288.08
321.202	1.92
321.333	251.92
321.464	-388.08
321.595	-225.08
321.726	213.92
321.856	-347.08
321.987	-162.08
322.118	-219.08
322.249	-4.08
322.379	-74.08
322.51	13.92
322.641	-58.08
322.771	-324.08
322.902	-82.08
323.033	-117.08
323.164	700.92
323.294	-193.08
323.425	-206.08
323.556	-203.08
323.686	-84.08
323.817	297.92
323.948	-45.08
324.078	-141.08
324.209	135.92
324.34	-171.08
324.47	194.92
324.601	-220.08
324.732	-76.08
324.862	30.92
324.993	-221.08
325.124	-414.08
325.254	-96.08
325.385	-99.08
325.516	522.92
325.646	355.92
325.777	-151.08
325.908	-180.08
326.038	51.92
326.169	-156.08
326.299	-51.08
326.43	80.92
326.561	-133.08
326.691	-165.08
326.822	-283.08
326.952	-210.08
327.083	-71.08
327.214	-258.08
327.344	-73.08
327.475	-20.08
327.605	-65.08
327.736	-150.08
327.867	-286.08
327.997	-157.08
328.128	-66.08
328.258	-338.08
328.389	222.92
328.519	-292.08
328.65	26.92
328.78	-210.08
328.911	-37.08
329.041	81.92
329.172	-351.08
329.303	-216.08
329.433	-176.08
329.564	-260.08
329.694	-238.08
329.825	-207.08
329.955	-51.08
330.086	410.92
330.216	-164.08
330.347	-280.08
330.477	-123.08
330.608	-118.08
330.738	-129.08
330.868	-305.08
330.999	-170.08
331.129	104.92
331.26	-238.08
331.39	-197.08
331.521	145.92
331.651	35.92
331.782	-338.08
331.912	-271.08
332.043	-239.08
332.173	41.92
332.303	-322.08
332.434	90.92
332.564	-18.08
332.695	-211.08
332.825	-325.08
332.956	-187.08
333.086	-122.08
333.216	-257.08
333.347	-66.08
333.477	-406.08
333.608	-84.08
333.738	14.92
333.868	-144.08
333.999	-81.08
334.129	78.92
334.259	-54.08
334.39	-215.08
334.52	53.92
334.65	-175.08
334.781	114.92
334.911	-205.08
335.042	-250.08
335.172	-46.08
335.302	-114.08
335.433	281.92
335.563	-255.08
335.693	1.92
335.824	240.92
335.954	-369.08
336.084	-22.08
336.214	-36.08
336.345	311.92
336.475	39.92
336.605	-256.08
336.736	273.92
336.866	-97.08
336.996	-151.08
337.126	-266.08
337.257	-87.08
337.387	-342.08
337.517	-231.08
337.648	-326.08
337.778	146.92
337.908	93.92
338.038	20.92
338.169	-144.08
338.299	205.92
338.429	-50.08
338.559	-249.08
338.69	-179.08
338.82	379.92
338.95	-28.08
339.08	-444.08
339.21	-281.08
339.341	-124.08
339.471	22.92
339.601	-110.08
339.731	-78.08
339.861	-175.08
339.992	-131.08
340.122	-132.08
340.252	-201.08
340.382	-199.08
340.512	-90.08
340.642	169.92
340.773	-70.08
340.903	-304.08
341.033	-88.08
341.163	-36.08
341.293	112.92
341.423	-189.08
341.554	-305.08
341.684	-31.08
341.814	-115.08
341.944	-161.08
342.074	-84.08
342.204	-186.08
342.334	187.92
342.464	-280.08
342.595	-147.08
342.725	-276.08
342.855	-43.08
342.985	-185.08
343.115	-275.08
343.245	-365.08
343.375	3.92
343.505	-121.08
343.635	14.92
343.765	-209.08
343.895	-395.08
344.025	73.92
344.155	-291.08
344.286	-182.08
344.416	-60.08
344.546	110.92
344.676	-90.08
344.806	142.92
344.936	-77.08
345.066	175.92
345.196	-266.08
345.326	-312.08
345.456	80.92
345.586	-251.08
345.716	-277.08
345.846	38.92
345.976	-381.08
346.106	-82.08
346.236	55.92
346.366	24.92
346.496	-192.08
346.626	-187.08
346.756	-228.08
346.886	-205.08
347.016	-335.08
347.146	-212.08
347.276	-268.08
347.406	-204.08
347.536	-56.08
347.666	113.92
347.795	-248.08
347.925	-151.08
348.055	119.92
348.185	-157.08
348.315	-179.08
348.445	69.92
348.575	-201.08
348.705	-286.08
348.835	-265.08
348.965	-176.08
349.095	5.92
349.225	251.92
349.354	-259.08
349.484	-182.08
349.614	-165.08
349.744	-255.08
349.874	-261.08
350.004	-346.08
350.134	-274.08
350.264	-321.08
350.393	-295.08
350.523	129.92
350.653	-334.08
350.783	40.92
350.913	196.92
351.043	-234.08
351.173	-196.08
351.302	1.92
351.432	182.92
351.562	-116.08
351.692	-87.08
351.822	-184.08
351.951	-370.08
352.081	147.92
352.211	-138.08
352.341	137.92
352.471	119.92
352.6	-147.08
352.73	-202.08
352.86	-174.08
352.99	-33.08
353.12	-80.08
353.249	-49.08
353.379	-251.08
353.509	48.92
353.639	-295.08
353.768	-79.08
353.898	-229.08
354.028	-282.08
354.158	-162.08
354.287	-211.08
354.417	-324.08
354.547	-258.08
354.677	-357.08
354.806	-106.08
354.936	-5.08
355.066	-201.08
355.195	-39.08
355.325	-20.08
355.455	-254.08
355.584	167.92
355.714	-238.08
355.844	115.92
355.974	-35.08
356.103	-133.08
356.233	-145.08
356.363	32.92
356.492	-259.08
356.622	-307.08
356.752	-14.08
356.881	-341.08
357.011	50.92
357.14	116.92
357.27	-139.08
357.4	58.92
357.529	-127.08
357.659	102.92
357.789	13.92
357.918	-296.08
358.048	-338.08
358.177	-137.08
358.307	-256.08
358.437	-74.08
358.566	-265.08
358.696	60.92
358.825	131.92
358.955	-305.08
359.085	-9.08
359.214	-399.08
359.344	-90.08
359.473	-294.08
359.603	-164.08
359.733	-206.08
359.862	-319.08
359.992	65.92
360.121	-163.08
360.251	0.92
360.38	-318.08
360.51	93.92
360.639	-188.08
360.769	-78.08
360.898	107.92
361.028	62.92
361.157	-92.08
361.287	-59.08
361.416	-248.08
361.546	-164.08
361.675	-160.08
361.805	-164.08
361.934	5.92
362.064	-169.08
362.193	-213.08
362.323	-267.08
362.452	96.92
362.582	-270.08
362.711	-144.08
362.841	41.92
362.97	-23.08
363.1	-276.08
363.229	-292.08
363.359	-160.08
363.488	-234.08
363.617	-103.08
363.747	-101.08
363.876	-362.08
364.006	-14.08
364.135	-124.08
364.265	-132.08
364.394	-182.08
364.523	257.92
364.653	-252.08
364.782	-25.08
364.912	-268.08
365.041	-291.08
365.17	-251.08
365.3	1.92
365.429	173.92
365.558	-176.08
365.688	-237.08
365.817	-273.08
365.947	-74.08
366.076	-48.08
366.205	-87.08
366.335	-358.08
366.464	-222.08
366.593	87.92
366.723	-150.08
366.852	-158.08
366.981	-98.08
367.111	-258.08
367.24	-165.08
367.369	-136.08
367.499	498.92
367.628	137.92
367.757	-180.08
367.886	-53.08
368.016	77.92
368.145	-111.08
368.274	-75.08
368.404	-300.08
368.533	-122.08
368.662	11.92
368.791	-219.08
368.921	-371.08
369.05	156.92
369.179	-69.08
369.308	301.92
369.438	-344.08
369.567	-377.08
369.696	-141.08
369.825	-3.08
369.955	-210.08
370.084	-32.08
370.213	-126.08
370.342	-315.08
370.472	-309.08
370.601	420.92
370.73	26.92
370.859	-411.08
370.988	-158.08
371.118	-292.08
371.247	5.92
371.376	76.92
371.505	-94.08
371.634	-21.08
371.763	-121.08
371.893	-241.08
372.022	-183.08
372.151	-279.08
372.28	-333.08
372.409	-386.08
372.538	-191.08
372.667	-53.08
372.797	124.92
372.926	-357.08
373.055	-52.08
373.184	-127.08
373.313	-253.08
373.442	-66.08
373.571	-244.08
373.7	-153.08
373.83	-60.08
373.959	-413.08
374.088	-146.08
374.217	121.92
374.346	-178.08
374.475	-375.08
374.604	-240.08
374.733	276.92
374.862	-133.08
374.991	-251.08
375.12	-80.08
375.249	-56.08
375.378	-260.08
375.508	-312.08
375.637	-325.08
375.766	63.92
375.895	-190.08
376.024	132.92
376.153	-264.08
376.282	-116.08
376.411	-239.08
376.54	-440.08
376.669	-55.08
376.798	-177.08
376.927	-271.08
377.056	82.92
377.185	-78.08
377.314	59.92
377.443	237.92
377.572	-274.08
377.701	-302.08
377.83	147.92
377.959	7.92
378.088	1681.92
378.217	119.92
378.346	-207.08
378.474	-355.08
378.603	-264.08
378.732	-48.08
378.861	-203.08
378.99	-281.08
379.119	-389.08
379.248	-95.08
379.377	-198.08
379.506	-175.08
379.635	101.92
379.764	-70.08
379.893	-273.08
380.022	-305.08
380.15	-100.08
380.279	-357.08
380.408	-248.08
380.537	-165.08
380.666	-2.08
380.795	-76.08
380.924	-160.08
381.053	-294.08
381.181	-80.08
381.31	746.92
381.439	-266.08
381.568	-178.08
381.697	-192.08
381.826	-144.08
381.955	-256.08
382.083	-118.08
382.212	-331.08
382.341	1.92
382.47	-268.08
382.599	-144.08
382.727	219.92
382.856	-14.08
382.985	-28.08
383.114	-198.08
383.243	-214.08
383.371	-121.08
383.5	-260.08
383.629	-286.08
383.758	-266.08
383.887	-417.08
384.015	-71.08
384.144	-279.08
384.273	-100.08
384.402	-27.08
384.53	-261.08
384.659	-269.08
384.788	-309.08
384.917	-253.08
385.045	-149.08
385.174	-120.08
385.303	-359.08
385.432	28.92
385.56	-125.08
385.689	-168.08
385.818	-70.08
385.946	-52.08
386.075	-240.08
386.204	-272.08
386.332	-144.08
386.461	37.92
386.59	21.92
386.718	-313.08
386.847	-170.08
386.976	-201.08
387.104	-367.08
387.233	-313.08
387.362	-95.08
387.49	-90.08
387.619	-280.08
387.748	-147.08
387.876	141.92
388.005	-109.08
388.134	76.92
388.262	-345.08
388.391	-248.08
388.52	-52.08
388.648	-301.08
388.777	73.92
388.905	-245.08
389.034	-160.08
389.163	-222.08
389.291	-129.08
389.42	-0.08
389.548	83.92
389.677	-135.08
389.805	-102.08
389.934	-36.08
390.063	-304.08
390.191	-343.08
390.32	-218.08
390.448	-121.08
390.577	-270.08
390.705	-305.08
390.834	-132.08
390.962	-317.08
391.091	-271.08
391.22	79.92
391.348	148.92
391.477	-45.08
391.605	-357.08
391.734	-209.08
391.862	-243.08
391.991	-273.08
392.119	-278.08
392.248	-151.08
392.376	-125.08
392.505	-164.08
392.633	-207.08
392.762	287.92
392.89	-289.08
393.018	48.92
393.147	-176.08
393.275	-350.08
393.404	-289.08
393.532	-217.08
393.661	-108.08
393.789	-83.08
393.918	-101.08
394.046	-130.08
394.174	-142.08
394.303	-351.08
394.431	-217.08
394.56	-5.08
394.688	-373.08
394.817	-391.08
394.945	96.92
395.073	22.92
395.202	-74.08
395.33	-160.08
395.459	-183.08
395.587	104.92
395.715	64.92
395.844	-98.08
395.972	-410.08
396.1	79.92
396.229	-246.08
396.357	-66.08
396.485	-194.08
396.614	-258.08
396.742	72.92
396.87	-101.08
396.999	-21.08
397.127	-314.08
397.255	-40.08
397.384	91.92
397.512	-380.08
397.64	-288.08
397.769	-161.08
397.897	-55.08
398.025	-168.08
398.154	-95.08
398.282	176.92
398.41	-100.08
398.538	-88.08
398.667	-252.08
398.795	-220.08
398.923	4.92
399.052	-184.08
399.18	-191.08
399.308	-143.08
399.436	171.92
399.565	-313.08
399.693	-73.08
399.821	-125.08
399.949	-183.08
400.078	285.92
400.206	-308.08
400.334	-307.08
400.462	-173.08
400.59	-351.08
400.719	-202.08
400.847	-282.08
400.975	-40.08
401.103	-235.08
401.231	-75.08
401.36	-128.08
401.488	-21.08
401.616	-194.08
401.744	-160.08
401.872	-228.08
402	-6.08
402.129	-200.08
402.257	-279.08
402.385	-171.08
402.513	-129.08
402.641	-177.08
402.769	-132.08
402.897	-254.08
403.026	-361.08
403.154	-382.08
403.282	-321.08
403.41	-201.08
403.538	132.92
403.666	-336.08
403.794	-195.08
403.922	-92.08
404.05	-88.08
404.179	-115.08
404.307	-85.08
404.435	-311.08
404.563	-280.08
404.691	-388.08
404.819	418.92
404.947	-294.08
405.075	-241.08
405.203	-375.08
405.331	-212.08
405.459	-292.08
405.587	-82.08
405.715	-249.08
405.843	-193.08
405.971	-96.08
406.099	125.92
406.227	-33.08
406.355	-142.08
406.483	-374.08
406.611	-20.08
406.739	-314.08
406.867	-290.08
406.995	-199.08
407.123	-181.08
407.251	-391.08
407.379	-320.08
407.507	-21.08
407.635	-130.08
407.763	-432.08
407.891	-431.08
408.019	-12.08
408.147	27.92
408.275	162.92
408.403	-329.08
408.531	-352.08
408.659	188.92
408.787	-96.08
408.915	-220.08
409.043	-233.08
409.171	77.92
409.299	-0.08
409.427	60.92
409.554	-365.08
409.682	293.92
409.81	-103.08
409.938	-211.08
410.066	23.92
410.194	-98.08
410.322	-270.08
410.45	-220.08
410.578	-382.08
410.705	-295.08
410.833	-112.08
410.961	85.92
411.089	334.92
411.217	-186.08
411.345	-189.08
411.473	-248.08
411.6	-95.08
411.728	-162.08
411.856	-336.08
411.984	-320.08
412.112	-54.08
412.239	-81.08
412.367	-191.08
412.495	66.92
412.623	-287.08
412.751	-5.08
412.878	-384.08
413.006	-211.08
413.134	61.92
413.262	182.92
413.39	-51.08
413.517	-113.08
413.645	43.92
413.773	-346.08
413.901	198.92
414.028	-72.08
414.156	-127.08
414.284	-264.08
414.412	24.92
414.539	-172.08
414.667	-229.08
414.795	-237.08
414.923	-395.08
415.05	-184.08
415.178	-57.08
415.306	339.92
415.433	-274.08
415.561	54.92
415.689	50.92
415.816	-272.08
415.944	192.92
416.072	-307.08
416.2	11.92
416.327	257.92
416.455	-272.08
416.583	-226.08
416.71	-257.08
416.838	135.92
416.966	-339.08
417.093	-201.08
417.221	48.92
417.348	-61.08
417.476	-327.08
417.604	-186.08
417.731	-162.08
417.859	39.92
417.987	-87.08
418.114	-252.08
418.242	65.92
418.369	-220.08
418.497	-347.08
418.625	163.92
418.752	-105.08
418.88	-320.08
419.007	170.92
419.135	-78.08
419.263	-214.08
419.39	34.92
419.518	38.92
419.645	39.92
419.773	581.92
419.9	1735.92
420.028	4192.92
420.155	4978.92
420.283	7060.92
420.41	8038.92
420.538	8817.92
420.666	9411.92
420.793	9708.92
420.921	8742.92
421.048	6955.92
421.176	4725.92
421.303	2391.92
421.431	670.92
421.558	-63.08
421.686	207.92
421.813	81.92
421.941	-180.08
422.068	-58.08
422.195	93.92
422.323	83.92
422.45	-368.08
422.578	-92.08
422.705	-252.08
422.833	-155.08
422.96	-285.08
423.088	-18.08
423.215	378.92
423.343	321.92
423.47	-73.08
423.597	221.92
423.725	-111.08
423.852	-144.08
423.98	-96.08
424.107	-385.08
424.234	-144.08
424.362	-204.08
424.489	-230.08
424.617	507.92
424.744	-83.08
424.871	-332.08
424.999	-107.08
425.126	85.92
425.253	-14.08
425.381	-216.08
425.508	-312.08
425.636	24.92
425.763	-223.08
425.89	-223.08
426.018	-363.08
426.145	-156.08
426.272	-61.08
426.4	38.92
426.527	83.92
426.654	-287.08
426.781	-73.08
426.909	-103.08
427.036	-104.08
427.163	-362.08
427.291	-281.08
427.418	-184.08
427.545	-121.08
427.673	-332.08
427.8	-385.08
427.927	-285.08
428.054	-82.08
428.182	-169.08
428.309	-198.08
428.436	-231.08
428.563	-334.08
428.691	-82.08
428.818	-215.08
428.945	-1.08
429.072	-346.08
429.2	-78.08
429.327	-66.08
429.454	31.92
429.581	-121.08
429.708	-397.08
429.836	-251.08
429.963	-195.08
430.09	-212.08
430.217	-243.08
430.344	-323.08
430.472	-309.08
430.599	-9.08
430.726	-221.08
430.853	-147.08
430.98	-13.08
431.107	-281.08
431.235	-124.08
431.362	-40.08
431.489	-150.08
431.616	238.92
431.743	93.92
431.87	-363.08
431.997	-172.08
432.125	-116.08
432.252	-434.08
432.379	-188.08
432.506	-40.08
432.633	-259.08
432.76	-135.08
432.887	99.92
433.014	-192.08
433.141	-293.08
433.268	-73.08
433.395	-249.08
433.523	-192.08
433.65	-178.08
433.777	-220.08
433.904	-186.08
434.031	-354.08
434.158	-99.08
434.285	37.92
434.412	-366.08
434.539	-141.08
434.666	-321.08
434.793	-279.08
434.92	-320.08
435.047	-30.08
435.174	-179.08
435.301	7.92
435.428	241.92
435.555	162.92
435.682	-93.08
435.809	-331.08
435.936	107.92
436.063	-245.08
436.19	94.92
436.317	-268.08
436.444	25.92
436.571	-272.08
436.698	-16.08
436.825	89.92
436.952	-28.08
437.079	-79.08
437.206	-7.08
437.333	-284.08
437.46	-179.08
437.587	-136.08
437.714	-309.08
437.84	-159.08
437.967	-363.08
438.094	-365.08
438.221	54.92
438.348	-153.08
438.475	8017.92
438.602	-318.08
438.729	-418.08
438.856	-261.08
438.983	-314.08
439.109	-42.08
439.236	41.92
439.363	-434.08
439.49	-263.08
439.617	-139.08
439.744	-264.08
439.871	417.92
439.997	-252.08
440.124	-78.08
440.251	-87.08
440.378	-238.08
440.505	-196.08
440.632	57.92
440.758	140.92
440.885	263.92
441.012	-278.08
441.139	31.92
441.266	-314.08
441.392	-218.08
441.519	-295.08
441.646	-360.08
441.773	-77.08
441.9	236.92
442.026	-215.08
442.153	-82.08
442.28	-79.08
442.407	-286.08
442.533	46.92
442.66	-47.08
442.787	-91.08
442.914	-299.08
443.04	-230.08
443.167	-149.08
443.294	-131.08
443.421	-106.08
443.547	-308.08
443.674	-154.08
443.801	-62.08
443.927	54.92
444.054	384.92
444.181	68.92
444.307	62.92
444.434	-47.08
444.561	-319.08
444.688	-368.08
444.814	22.92
444.941	-193.08
445.068	-334.08
445.194	220.92
445.321	-273.08
445.447	169.92
445.574	-364.08
445.701	-369.08
445.827	-196.08
445.954	-396.08
446.081	1.92
446.207	-292.08
446.334	-146.08
446.461	-210.08
446.587	-408.08
446.714	-0.08
446.84	40.92
446.967	-248.08
447.094	-177.08
447.22	67.92
447.347	-165.08
447.473	-266.08
447.6	-107.08
447.726	-393.08
447.853	-100.08
447.98	-138.08
448.106	-45.08
448.233	-122.08
448.359	-256.08
448.486	-72.08
448.612	-249.08
448.739	-69.08
448.865	94.92
448.992	206.92
449.118	-213.08
449.245	-327.08
449.371	-302.08
449.498	-160.08
449.624	-14.08
449.751	-114.08
449.877	-261.08
450.004	-140.08
450.13	-132.08
450.257	-301.08
450.383	-143.08
450.51	-392.08
450.636	-256.08
450.763	-215.08
450.889	-258.08
451.016	-430.08
451.142	-66.08
451.269	-272.08
451.395	242.92
451.521	-177.08
451.648	-279.08
451.774	-124.08
451.901	-382.08
452.027	-174.08
452.154	53.92
452.28	-190.08
452.406	-265.08
452.533	-258.08
452.659	-348.08
452.785	-193.08
452.912	-311.08
453.038	-320.08
453.165	-53.08
453.291	108.92
453.417	135.92
453.544	-336.08
453.67	-202.08
453.796	97.92
453.923	-348.08
454.049	-239.08
454.175	-287.08
454.302	-264.08
454.428	-26.08
454.554	-103.08
454.681	-267.08
454.807	-297.08
454.933	266.92
455.06	-96.08
455.186	-171.08
455.312	62.92
455.439	38.92
455.565	-334.08
455.691	-316.08
455.817	1.92
455.944	71.92
456.07	-179.08
456.196	-69.08
456.322	-407.08
456.449	-370.08
456.575	-132.08
456.701	-238.08
456.827	-278.08
456.954	-333.08
457.08	-305.08
457.206	-437.08
457.332	-144.08
457.459	-365.08
457.585	-294.08
457.711	-263.08
457.837	-16.08
457.963	-104.08
458.09	-288.08
458.216	-353.08
458.342	-165.08
458.468	-230.08
458.594	-174.08
458.721	-128.08
458.847	-100.08
458.973	-357.08
459.099	-210.08
459.225	-192.08
459.351	-223.08
459.477	-84.08
459.604	-312.08
459.73	-219.08
459.856	-302.08
459.982	-138.08
460.108	-439.08
460.234	-446.08
460.36	-181.08
460.486	-42.08
460.613	-296.08
460.739	53.92
460.865	-251.08
460.991	234.92
461.117	154.92
461.243	-319.08
461.369	-350.08
461.495	-236.08
461.621	-147.08
461.747	-75.08
461.873	-58.08
461.999	-304.08
462.125	-180.08
462.252	42.92
462.378	-84.08
462.504	-49.08
462.63	-88.08
462.756	-349.08
462.882	-238.08
463.008	-210.08
463.134	91.92
463.26	-376.08
463.386	-207.08
463.512	-106.08
463.638	-256.08
463.764	-327.08
463.89	-190.08
464.016	46.92
464.142	-52.08
464.268	-322.08
464.394	-214.08
464.52	-351.08
464.645	-104.08
464.771	22.92
464.897	-246.08
465.023	-259.08
465.149	-80.08
465.275	-360.08
465.401	-320.08
465.527	105.92
465.653	-144.08
465.779	38.92
465.905	-349.08
466.031	-124.08
466.157	-269.08
466.282	-222.08
466.408	-258.08
466.534	-153.08
466.66	-407.08
466.786	-186.08
466.912	-104.08
467.038	-174.08
467.164	-173.08
467.289	-231.08
467.415	-170.08
467.541	-148.08
467.667	-187.08
467.793	-219.08
467.919	-62.08
468.045	137.92
468.17	-297.08
468.296	-180.08
468.422	-198.08
468.548	32.92
468.674	-385.08
468.799	-278.08
468.925	-248.08
469.051	-324.08
469.177	-407.08
469.303	-389.08
469.428	-46.08
469.554	-279.08
469.68	-261.08
469.806	-82.08
469.931	-128.08
470.057	334.92
470.183	-466.08
470.309	-222.08
470.434	138.92
470.56	-170.08
470.686	-134.08
470.812	-167.08
470.937	-332.08
471.063	-276.08
471.189	-67.08
471.315	44.92
471.44	-155.08
471.566	-177.08
471.692	48.92
471.817	-290.08
471.943	-143.08
472.069	-39.08
472.194	-221.08
472.32	-257.08
472.446	-32.08
472.571	-306.08
472.697	-281.08
472.823	-107.08
472.948	-329.08
473.074	-125.08
473.2	-208.08
473.325	-324.08
473.451	-195.08
473.577	-219.08
473.702	-422.08
473.828	-224.08
473.953	-379.08
474.079	-135.08
474.205	-356.08
474.33	-327.08
474.456	-264.08
474.581	204.92
474.707	-149.08
474.833	-261.08
474.958	-66.08
475.084	-1.08
475.209	-254.08
475.335	-295.08
475.46	-109.08
475.586	-199.08
475.712	-81.08
475.837	-209.08
475.963	-217.08
476.088	-376.08
476.214	-285.08
476.339	-255.08
476.465	-241.08
476.59	-343.08
476.716	119.92
476.841	-326.08
476.967	218.92
477.092	-214.08
477.218	-108.08
477.343	-309.08
477.469	252.92
477.594	-272.08
477.72	-311.08
477.845	-120.08
477.971	-240.08
478.096	-130.08
478.222	-232.08
478.347	3308.92
478.472	-10.08
478.598	-268.08
478.723	-257.08
478.849	12.92
478.974	-93.08
479.1	-300.08
479.225	-135.08
479.35	-258.08
479.476	-60.08
479.601	-299.08
479.727	38.92
479.852	-254.08
479.977	-142.08
480.103	-167.08
480.228	176.92
480.354	-187.08
480.479	75.92
480.604	-251.08
480.73	-271.08
480.855	-426.08
480.98	64.92
481.106	-373.08
481.231	-368.08
481.356	-307.08
481.482	-413.08
481.607	-322.08
481.732	-501.08
481.858	-238.08
481.983	-313.08
482.108	-278.08
482.234	-406.08
482.359	-238.08
482.484	119.92
482.61	-289.08
482.735	-172.08
482.86	-385.08
482.985	-212.08
483.111	-188.08
483.236	-77.08
483.361	-262.08
483.486	-305.08
483.612	24.92
483.737	-428.08
483.862	-203.08
483.987	-88.08
484.113	-424.08
484.238	-39.08
484.363	-359.08
484.488	-247.08
484.614	-35.08
484.739	-217.08
484.864	78.92
484.989	441.92
485.114	-98.08
485.24	-175.08
485.365	-244.08
485.49	-399.08
485.615	2.92
485.74	-194.08
485.865	-106.08
485.991	-124.08
486.116	-93.08
486.241	-350.08
486.366	-326.08
486.491	-53.08
486.616	-280.08
486.742	-232.08
486.867	-180.08
486.992	-327.08
487.117	-302.08
487.242	-307.08
487.367	-446.08
487.492	-199.08
487.617	-23.08
487.742	-140.08
487.868	-298.08
487.993	-49.08
488.118	-113.08
488.243	-115.08
488.368	-288.08
488.493	-409.08
488.618	-253.08
488.743	-260.08
488.868	-312.08
488.993	-205.08
489.118	-4.08
489.243	-153.08
489.368	-249.08
489.493	-8.08
489.618	-170.08
489.743	-329.08
489.868	-168.08
489.993	-255.08
490.118	-419.08
490.243	362.92
490.368	-213.08
490.493	-37.08
490.618	18.92
490.743	-410.08
490.868	-134.08
490.993	-166.08
491.118	-31.08
491.243	-321.08
491.368	-155.08
491.493	-15.08
491.618	-164.08
491.743	-209.08
491.868	-263.08
491.993	-202.08
492.118	-303.08
492.243	-114.08
492.368	-79.08
492.493	-291.08
492.618	143.92
492.743	-263.08
492.867	10.92
492.992	-156.08
493.117	-14.08
493.242	-258.08
493.367	-203.08
493.492	28.92
493.617	-267.08
493.742	90.92
493.867	-237.08
493.991	-398.08
494.116	-163.08
494.241	-138.08
494.366	-226.08
494.491	-68.08
494.616	46.92
494.74	-281.08
494.865	-361.08
494.99	-251.08
495.115	-230.08
495.24	-135.08
495.365	-247.08
495.489	-207.08
495.614	-109.08
495.739	-234.08
495.864	-263.08
495.989	-395.08
496.113	-7.08
496.238	-102.08
496.363	-249.08
496.488	-350.08
496.612	9.92
496.737	-297.08
496.862	-221.08
496.987	-240.08
497.111	-325.08
497.236	-306.08
497.361	-305.08
497.486	84.92
497.61	10.92
497.735	-183.08
497.86	-81.08
497.984	-103.08
498.109	-402.08
498.234	-282.08
498.359	-225.08
498.483	-163.08
498.608	-146.08
498.733	-235.08
498.857	-328.08
498.982	-158.08
499.107	-398.08
499.231	-169.08
499.356	-236.08
499.481	86.92
499.605	-487.08
499.73	-376.08
499.855	-0.08
499.979	-301.08
500.104	-174.08
500.228	121.92
500.353	-219.08
500.478	-329.08
500.602	-125.08
500.727	100.92
500.852	-75.08
500.976	-456.08
501.101	-221.08
501.225	174.92
501.35	-352.08
501.474	-277.08
501.599	-10.08
501.724	-210.08
501.848	-193.08
501.973	132.92
502.097	-350.08
502.222	-411.08
502.346	-52.08
502.471	-157.08
502.595	-285.08
502.72	-332.08
502.844	-341.08
502.969	-219.08
503.094	143.92
503.218	-396.08
503.343	-291.08
503.467	-300.08
503.592	-253.08
503.716	-250.08
503.841	-112.08
503.965	178.92
504.089	-201.08
504.214	-340.08
504.338	-235.08
504.463	2.92
504.587	-121.08
504.712	-184.08
504.836	-186.08
504.961	266.92
505.085	100.92
505.21	-296.08
505.334	-273.08
505.458	229.92
505.583	-365.08
505.707	-88.08
505.832	-249.08
505.956	-132.08
506.08	-306.08
506.205	-226.08
506.329	108.92
506.454	-357.08
506.578	-179.08
506.702	-294.08
506.827	96.92
506.951	-60.08
507.076	-168.08
507.2	-336.08
507.324	-21.08
507.449	72.92
507.573	-170.08
507.697	-248.08
507.822	-179.08
507.946	-191.08
508.07	-399.08
508.195	-203.08
508.319	-224.08
508.443	-117.08
508.567	-406.08
508.692	-331.08
508.816	-332.08
508.94	-198.08
509.065	-438.08
509.189	-64.08
509.313	-67.08
509.437	-5.08
509.562	-226.08
509.686	-152.08
509.81	-230.08
509.935	-106.08
510.059	38.92
510.183	-309.08
510.307	-370.08
510.431	-31.08
510.556	-194.08
510.68	-279.08
510.804	-428.08
510.928	-212.08
511.053	-387.08
511.177	-357.08
511.301	-183.08
511.425	-239.08
511.549	-142.08
511.674	-133.08
511.798	-173.08
511.922	-83.08
512.046	142.92
512.17	-203.08
512.294	-341.08
512.419	-115.08
512.543	-60.08
512.667	-214.08
512.791	-297.08
512.915	-108.08
513.039	-197.08
513.163	-83.08
513.288	132.92
513.412	-237.08
513.536	39.92
513.66	-308.08
513.784	-193.08
513.908	-135.08
514.032	-156.08
514.156	-17.08
514.28	-49.08
514.404	-182.08
514.528	-193.08
514.653	-73.08
514.777	-0.08
514.901	-58.08
515.025	108.92
515.149	-247.08
515.273	-98.08
515.397	-216.08
515.521	-191.08
515.645	-210.08
515.769	-310.08
515.893	-260.08
516.017	-263.08
516.141	-414.08
516.265	-251.08
516.389	-265.08
516.513	-173.08
516.637	-290.08
516.761	-463.08
516.885	-282.08
517.009	-222.08
517.133	-98.08
517.257	-239.08
517.381	-13.08
517.505	-10.08
517.629	107.92
517.753	-248.08
517.877	-353.08
518.001	-240.08
518.125	-214.08
518.248	-65.08
518.372	-144.08
518.496	-395.08
518.62	-109.08
518.744	-176.08
518.868	-124.08
518.992	-139.08
519.116	-336.08
519.24	412.92
519.364	21.92
519.488	-179.08
519.611	-403.08
519.735	-213.08
519.859	-215.08
519.983	-28.08
520.107	-249.08
520.231	24.92
520.355	-143.08
520.478	-293.08
520.602	-312.08
520.726	45.92
520.85	-221.08
520.974	14.92
521.098	-266.08
521.221	-338.08
521.345	42.92
521.469	-287.08
521.593	-199.08
521.717	45.92
521.84	-162.08
521.964	-275.08
522.088	-246.08
522.212	-222.08
522.335	-416.08
522.459	-296.08
522.583	179.92
522.707	-337.08
522.83	-438.08
522.954	-310.08
523.078	-274.08
523.202	-6.08
523.325	-265.08
523.449	-143.08
523.573	-170.08
523.697	-308.08
523.82	-176.08
523.944	-228.08
524.068	-203.08
524.191	-227.08
524.315	-407.08
524.439	-153.08
524.562	-51.08
524.686	-265.08
524.81	-313.08
524.933	-266.08
525.057	-243.08
525.181	-115.08
525.304	-356.08
525.428	117.92
525.552	-366.08
525.675	-168.08
525.799	-300.08
525.923	-128.08
526.046	-70.08
526.17	-420.08
526.293	-348.08
526.417	-127.08
526.541	-32.08
526.664	-241.08
526.788	-224.08
526.911	-57.08
527.035	-356.08
527.159	-270.08
527.282	-258.08
527.406	-292.08
527.529	-56.08
527.653	-368.08
527.776	-122.08
527.9	-272.08
528.024	-303.08
528.147	-233.08
528.271	2.92
528.394	20.92
528.518	-7.08
528.641	-351.08
528.765	-149.08
528.888	-155.08
529.012	-106.08
529.135	-241.08
529.259	68.92
529.382	-219.08
529.506	-325.08
529.629	-114.08
529.753	-379.08
529.876	136.92
530	42.92
530.123	-142.08
530.247	-317.08
530.37	-259.08
530.493	-173.08
530.617	-341.08
530.74	25.92
530.864	-70.08
530.987	-387.08
531.111	-92.08
531.234	-294.08
531.357	17.92
531.481	-5.08
531.604	35.92
531.728	-393.08
531.851	-108.08
531.974	-110.08
532.098	-245.08
532.221	-271.08
532.345	-226.08
532.468	-360.08
532.591	116.92
532.715	-178.08
532.838	-226.08
532.961	-201.08
533.085	-292.08
533.208	-140.08
533.331	-392.08
533.455	9.92
533.578	-216.08
533.701	-118.08
533.825	53.92
533.948	-276.08
534.071	-225.08
534.195	-73.08
534.318	-325.08
534.441	-247.08
534.564	-57.08
534.688	-254.08
534.811	-21.08
534.934	-200.08
535.058	-132.08
535.181	66.92
535.304	-18.08
535.427	-286.08
535.551	-377.08
535.674	-221.08
535.797	-85.08
535.92	-23.08
536.043	-373.08
536.167	-336.08
536.29	-75.08
536.413	-109.08
536.536	-332.08
536.66	-265.08
536.783	-89.08
536.906	-170.08
537.029	-286.08
537.152	-253.08
537.275	-194.08
537.399	99.92
537.522	-440.08
537.645	-231.08
537.768	-233.08
537.891	-136.08
538.014	-200.08
538.138	-291.08
538.261	-236.08
538.384	-165.08
538.507	-366.08
538.63	-243.08
538.753	126.92
538.876	-106.08
538.999	-339.08
539.123	-78.08
539.246	189.92
539.369	220.92
539.492	-265.08
539.615	-339.08
539.738	216.92
539.861	-243.08
539.984	-160.08
540.107	-123.08
540.23	-237.08
540.353	-292.08
540.476	-484.08
540.599	-91.08
540.722	-344.08
540.846	-154.08
540.969	-410.08
541.092	-152.08
541.215	-340.08
541.338	-124.08
541.461	-338.08
541.584	-172.08
541.707	-183.08
541.83	-265.08
541.953	-149.08
542.076	-118.08
542.199	-153.08
542.322	55.92
542.445	138.92
542.567	-260.08
542.69	-111.08
542.813	-242.08
542.936	-86.08
543.059	-171.08
543.182	261.92
543.305	74.92
543.428	-124.08
543.551	-205.08
543.674	120.92
543.797	-61.08
543.92	-210.08
544.043	268.92
544.166	-307.08
544.288	-209.08
544.411	-102.08
544.534	-347.08
544.657	-125.08
544.78	-237.08
544.903	-66.08
545.026	-181.08
545.149	-314.08
545.271	-312.08
545.394	-256.08
545.517	-389.08
545.64	386.92
545.763	-238.08
545.886	-281.08
546.008	-108.08
546.131	-6.08
546.254	-177.08
546.377	-396.08
546.5	-24.08
546.623	-51.08
546.745	-338.08
546.868	-218.08
546.991	24.92
547.114	-157.08
547.236	-182.08
547.359	-331.08
547.482	-112.08
547.605	-296.08
547.728	-273.08
547.85	-363.08
547.973	-276.08
548.096	-204.08
548.219	-107.08
548.341	-230.08
548.464	-375.08
548.587	-183.08
548.709	-213.08
548.832	-154.08
548.955	246.92
549.078	13.92
549.2	-288.08
549.323	-221.08
549.446	159.92
549.568	-176.08
549.691	-81.08
549.814	-40.08
549.936	-265.08
550.059	-204.08
550.182	-342.08
550.304	-382.08
550.427	-174.08
550.55	-249.08
550.672	-267.08
550.795	240.92
550.917	-290.08
551.04	-209.08
551.163	-104.08
551.285	62.92
551.408	24.92
551.531	335.92
551.653	-336.08
551.776	-103.08
551.898	-93.08
552.021	-116.08
552.143	-209.08
552.266	-168.08
552.389	-164.08
552.511	-333.08
552.634	-375.08
552.756	-276.08
552.879	195.92
553.001	13.92
553.124	-422.08
553.246	-300.08
553.369	59.92
553.492	-176.08
553.614	19.92
553.737	-479.08
553.859	-41.08
553.982	11.92
554.104	-143.08
554.227	-296.08
554.349	-208.08
554.472	-202.08
554.594	-476.08
554.716	54.92
554.839	-51.08
554.961	-109.08
555.084	-337.08
555.206	-138.08
555.329	-392.08
555.451	-358.08
555.574	-116.08
555.696	-295.08
555.819	-144.08
555.941	-189.08
556.063	-55.08
556.186	-197.08
556.308	-96.08
556.431	233.92
556.553	-40.08
556.675	-293.08
556.798	-205.08
556.92	-13.08
557.043	-279.08
557.165	-383.08
557.287	30.92
557.41	-196.08
557.532	-152.08
557.654	-207.08
557.777	47.92
557.899	-146.08
558.021	-220.08
558.144	67.92
558.266	39.92
558.388	241.92
558.511	-253.08
558.633	-171.08
558.755	-262.08
558.878	-301.08
559	-27.08
559.122	-415.08
559.244	-268.08
559.367	-188.08
559.489	31.92
559.611	130.92
559.734	-183.08
559.856	-124.08
559.978	-160.08
560.1	-165.08
560.223	-167.08
560.345	86.92
560.467	-344.08
560.589	-211.08
560.712	-206.08
560.834	189.92
560.956	-348.08
561.078	-197.08
561.2	-114.08
561.323	67.92
561.445	-376.08
561.567	-267.08
561.689	-319.08
561.811	-39.08
561.934	-213.08
562.056	-204.08
562.178	-85.08
562.3	-200.08
562.422	-82.08
562.544	-176.08
562.666	28.92
562.789	-75.08
562.911	-147.08
563.033	-18.08
563.155	-12.08
563.277	-255.08
563.399	-447.08
563.521	-248.08
563.643	-316.08
563.766	-166.08
563.888	15.92
564.01	-130.08
564.132	-329.08
564.254	-375.08
564.376	65.92
564.498	-156.08
564.62	121.92
564.742	-152.08
564.864	-391.08
564.986	-114.08
565.108	258.92
565.23	-273.08
565.352	-30.08
565.474	-126.08
565.597	135.92
565.719	95.92
565.841	-344.08
565.963	-85.08
566.085	-115.08
566.207	-228.08
566.329	34.92
566.451	20.92
566.573	-212.08
566.695	-192.08
566.817	160.92
566.938	-364.08
567.06	-212.08
567.182	-127.08
567.304	-197.08
567.426	-358.08
567.548	-17.08
567.67	-80.08
567.792	-190.08
567.914	-289.08
568.036	-161.08
568.158	-137.08
568.28	-306.08
568.402	-58.08
568.524	-205.08
568.646	-303.08
568.767	-254.08
568.889	-3.08
569.011	-178.08
569.133	-265.08
569.255	-388.08
569.377	-337.08
569.499	-140.08
569.621	-252.08
569.742	227.92
569.864	25.92
569.986	291.92
570.108	2.92
570.23	-326.08
570.352	55.92
570.473	-122.08
570.595	-198.08
570.717	-364.08
570.839	-135.08
570.961	-16.08
571.082	-180.08
571.204	-277.08
571.326	-278.08
571.448	3.92
571.57	20.92
571.691	-148.08
571.813	-148.08
571.935	58.92
572.057	-153.08
572.178	-314.08
572.3	115.92
572.422	139.92
572.544	204.92
572.665	-257.08
572.787	-328.08
572.909	87.92
573.031	-70.08
573.152	-342.08
573.274	-38.08
573.396	-26.08
573.517	-49.08
573.639	-418.08
573.761	-282.08
573.882	-136.08
574.004	-12.08
574.126	-340.08
574.247	-22.08
574.369	-33.08
574.491	-140.08
574.612	-323.08
574.734	-162.08
574.856	-155.08
574.977	-63.08
575.099	-124.08
575.221	-147.08
575.342	-177.08
575.464	-109.08
575.585	-81.08
575.707	-307.08
575.829	138.92
575.95	58.92
576.072	-218.08
576.193	-303.08
576.315	-204.08
576.437	-181.08
576.558	-215.08
576.68	-188.08
576.801	237.92
576.923	-314.08
577.044	75.92
577.166	-407.08
577.287	-118.08
577.409	-177.08
577.531	-190.08
577.652	-50.08
577.774	-376.08
577.895	-135.08
578.017	-298.08
578.138	-256.08
578.26	-170.08
578.381	-50.08
578.503	-266.08
578.624	-272.08
578.746	-356.08
578.867	-199.08
578.988	-79.08
579.11	122.92
579.231	-81.08
579.353	-220.08
579.474	-193.08
579.596	-221.08
579.717	-108.08
579.839	-152.08
579.96	-441.08
580.081	-87.08
580.203	-187.08
580.324	-115.08
580.446	-44.08
580.567	-162.08
580.688	202.92
580.81	-320.08
580.931	-238.08
581.053	-382.08
581.174	-149.08
581.295	-214.08
581.417	-50.08
581.538	-55.08
581.659	-47.08
581.781	-163.08
581.902	-248.08
582.024	-336.08
582.145	-339.08
582.266	-269.08
582.388	-180.08
582.509	-342.08
582.63	-144.08
582.751	-241.08
582.873	-217.08
582.994	-231.08
583.115	-168.08
583.237	-99.08
583.358	-267.08
583.479	-405.08
583.6	35.92
583.722	-173.08
583.843	-347.08
583.964	56.92
584.086	-243.08
584.207	-55.08
584.328	-335.08
584.449	-63.08
584.57	-90.08
584.692	-139.08
584.813	848.92
584.934	-136.08
585.055	-284.08
585.177	-24.08
585.298	-138.08
585.419	-339.08
585.54	185.92
585.661	-60.08
585.783	-116.08
585.904	-292.08
586.025	83.92
586.146	-290.08
586.267	-250.08
586.388	-192.08
586.51	304.92
586.631	-309.08
586.752	-348.08
586.873	-227.08
586.994	-362.08
587.115	-337.08
587.236	-244.08
587.357	-388.08
587.479	-270.08
587.6	63.92
587.721	-228.08
587.842	-303.08
587.963	176.92
588.084	78.92
588.205	-312.08
588.326	-198.08
588.447	-140.08
588.568	-174.08
588.689	-140.08
588.81	-96.08
588.931	-187.08
589.052	-256.08
589.174	-293.08
589.295	-105.08
589.416	-124.08
589.537	32.92
589.658	-232.08
589.779	-373.08
589.9	52.92
590.021	-227.08
590.142	-252.08
590.263	-398.08
590.384	-156.08
590.505	162.92
590.626	-288.08
590.747	-137.08
590.867	-64.08
590.988	-48.08
591.109	-208.08
591.23	30.92
591.351	-10.08
591.472	-149.08
591.593	-198.08
591.714	-132.08
591.835	-235.08
591.956	-214.08
592.077	-411.08
592.198	-172.08
592.319	-79.08
592.44	-15.08
592.56	-274.08
592.681	-389.08
592.802	-74.08
592.923	-171.08
593.044	-303.08
593.165	-351.08
593.286	-38.08
593.407	-284.08
593.527	-1.08
593.648	-313.08
593.769	-68.08
593.89	75.92
594.011	-163.08
594.132	-247.08
594.252	-124.08
594.373	-314.08
594.494	-417.08
594.615	-218.08
594.736	-201.08
594.856	52.92
594.977	-323.08
595.098	-115.08
595.219	-296.08
595.34	-96.08
595.46	-347.08
595.581	170.92
595.702	-156.08
595.823	-313.08
595.943	-113.08
596.064	-184.08
596.185	112.92
596.306	-400.08
596.426	-285.08
596.547	-349.08
596.668	-69.08
596.788	-71.08
596.909	-140.08
597.03	-84.08
597.151	-127.08
597.271	-250.08
597.392	-219.08
597.513	-103.08
597.633	-29.08
597.754	-104.08
597.875	-211.08
597.995	75.92
598.116	-106.08
598.237	-200.08
598.357	-285.08
598.478	-271.08
598.599	166.92
598.719	-149.08
598.84	-348.08
598.96	-289.08
599.081	-167.08
599.202	-186.08
599.322	-308.08
599.443	-346.08
599.563	-44.08
599.684	36.92
599.805	-247.08
599.925	-369.08
600.046	192.92
600.166	-194.08
600.287	-114.08
600.407	-178.08
600.528	58.92
600.649	-74.08
600.769	-144.08
600.89	-372.08
601.01	-18.08
601.131	-226.08
601.251	140.92
601.372	-144.08
601.492	-229.08
601.613	-285.08
601.733	-252.08
601.854	227.92
601.974	339.92
602.095	114.92
602.215	-348.08
602.336	-337.08
602.456	248.92
602.577	-248.08
602.697	669.92
602.817	-36.08
602.938	-134.08
603.058	-38.08
603.179	-354.08
603.299	-324.08
603.42	-343.08
603.54	-47.08
603.66	-343.08
603.781	-107.08
603.901	-211.08
604.022	101.92
604.142	-161.08
604.262	-149.08
604.383	-260.08
604.503	103.92
604.624	-265.08
604.744	-131.08
604.864	-49.08
604.985	-219.08
605.105	-94.08
605.225	-140.08
605.346	-131.08
605.466	6.92
605.586	206.92
605.707	274.92
605.827	-302.08
605.947	-201.08
606.068	-221.08
606.188	-196.08
606.308	-266.08
606.429	22.92
606.549	-213.08
606.669	-349.08
606.789	-266.08
606.91	-24.08
607.03	-296.08
607.15	-227.08
607.27	-79.08
607.391	19.92
607.511	-283.08
607.631	-303.08
607.751	149.92
607.872	-9.08
607.992	-314.08
608.112	20.92
608.232	-249.08
608.353	-313.08
608.473	-251.08
608.593	112.92
608.713	320.92
608.833	-167.08
608.954	-264.08
609.074	-225.08
609.194	-298.08
609.314	210.92
609.434	-49.08
609.554	-160.08
609.675	-71.08
609.795	-247.08
609.915	-310.08
610.035	294.92
610.155	-139.08
610.275	-218.08
610.395	-44.08
610.516	-362.08
610.636	-99.08
610.756	-56.08
610.876	-38.08
610.996	-308.08
611.116	172.92
611.236	-342.08
611.356	-239.08
611.476	-148.08
611.596	-114.08
611.716	120.92
611.836	-329.08
611.957	-327.08
612.077	-118.08
612.197	-67.08
612.317	-292.08
612.437	60.92
612.557	71.92
612.677	-168.08
612.797	-143.08
612.917	-363.08
613.037	-9.08
613.157	-107.08
613.277	-112.08
613.397	133.92
613.517	156.92
613.637	-227.08
613.757	-162.08
613.877	-294.08
613.997	-90.08
614.117	-256.08
614.237	-216.08
614.356	-107.08
614.476	46.92
614.596	35.92
614.716	-190.08
614.836	-185.08
614.956	-1.08
615.076	-84.08
615.196	-308.08
615.316	-127.08
615.436	-23.08
615.556	152.92
615.676	173.92
615.795	-107.08
615.915	-116.08
616.035	-221.08
616.155	-183.08
616.275	-298.08
616.395	-206.08
616.515	-14.08
616.635	-413.08
616.754	-410.08
616.874	-4.08
616.994	-106.08
617.114	251.92
617.234	10.92
617.354	32.92
617.473	326.92
617.593	-231.08
617.713	-134.08
617.833	-34.08
617.953	-60.08
618.072	-477.08
618.192	-261.08
618.312	59.92
618.432	87.92
618.551	-287.08
618.671	-263.08
618.791	-26.08
618.911	-71.08
619.03	-176.08
619.15	-138.08
619.27	-166.08
619.39	-220.08
619.509	-163.08
619.629	-170.08
619.749	-287.08
619.868	-112.08
619.988	-387.08
620.108	-240.08
620.228	732.92
620.347	-103.08
620.467	-264.08
620.587	-334.08
620.706	83.92
620.826	-257.08
620.946	-293.08
621.065	0.92
621.185	291.92
621.305	-220.08
621.424	-197.08
621.544	-455.08
621.663	-62.08
621.783	-215.08
621.903	194.92
622.022	-311.08
622.142	-129.08
622.261	162.92
622.381	-171.08
622.501	-82.08
622.62	-195.08
622.74	-93.08
622.859	-192.08
622.979	57.92
623.099	-189.08
623.218	-52.08
623.338	135.92
623.457	-53.08
623.577	-230.08
623.696	-85.08
623.816	-407.08
623.935	-277.08
624.055	-216.08
624.174	-121.08
624.294	-200.08
624.413	-365.08
624.533	-68.08
624.652	99.92
624.772	-278.08
624.891	-404.08
625.011	11.92
625.13	-195.08
625.25	-379.08
625.369	-251.08
625.489	-209.08
625.608	-266.08
625.728	-164.08
625.847	-167.08
625.966	-288.08
626.086	-239.08
626.205	-357.08
626.325	-119.08
626.444	-110.08
626.564	178.92
626.683	20.92
626.802	-2.08
626.922	113.92
627.041	-22.08
627.161	-152.08
627.28	27.92
627.399	20.92
627.519	-103.08
627.638	-406.08
627.757	-296.08
627.877	-139.08
627.996	-173.08
628.115	-43.08
628.235	-34.08
628.354	-329.08
628.473	-94.08
628.593	62.92
628.712	-140.08
628.831	-143.08
628.951	-340.08
629.07	72.92
629.189	-98.08
629.309	-146.08
629.428	221.92
629.547	-336.08
629.666	-55.08
629.786	-111.08
629.905	-298.08
630.024	-45.08
630.143	-83.08
630.263	-129.08
630.382	276.92
630.501	-216.08
630.62	-243.08
630.74	-305.08
630.859	102.92
630.978	-189.08
631.097	-328.08
631.216	-286.08
631.336	170.92
631.455	-268.08
631.574	-211.08
631.693	-26.08
631.812	-194.08
631.932	-428.08
632.051	73.92
632.17	291.92
632.289	46.92
632.408	-233.08
632.527	-169.08
632.646	-86.08
632.766	-260.08
632.885	152.92
633.004	-368.08
633.123	-132.08
633.242	-229.08
633.361	629.92
633.48	-267.08
633.599	-229.08
633.718	38.92
633.838	-80.08
633.957	-374.08
634.076	-91.08
634.195	-187.08
634.314	-68.08
634.433	-23.08
634.552	-219.08
634.671	-110.08
634.79	200.92
634.909	36.92
635.028	-74.08
635.147	0.92
635.266	-299.08
635.385	-103.08
635.504	-275.08
635.623	-33.08
635.742	-352.08
635.861	-335.08
635.98	-80.08
636.099	-221.08
636.218	-164.08
636.337	-163.08
636.456	285.92
636.575	18.92
636.694	-144.08
636.813	-359.08
636.932	-289.08
637.051	-97.08
637.17	-414.08
637.289	-96.08
637.408	-324.08
637.526	-115.08
637.645	-462.08
637.764	-365.08
637.883	-213.08
638.002	66.92
638.121	372.92
638.24	-298.08
638.359	47.92
638.478	-193.08
638.597	-325.08
638.715	382.92
638.834	-138.08
638.953	18.92
639.072	-342.08
639.191	-363.08
639.31	41.92
639.428	-111.08
639.547	-102.08
639.666	-6.08
639.785	-61.08
639.904	-97.08
640.023	-348.08
640.141	-228.08
640.26	-164.08
640.379	10.92
640.498	-409.08
640.616	-130.08
640.735	-148.08
640.854	73.92
640.973	-320.08
641.092	-29.08
641.21	-47.08
641.329	-180.08
641.448	-18.08
641.567	204.92
641.685	-146.08
641.804	-192.08
641.923	-170.08
642.041	-292.08
642.16	-158.08
642.279	85.92
642.398	-228.08
642.516	-293.08
642.635	168.92
642.754	-177.08
642.872	30.92
642.991	30.92
643.11	-234.08
643.228	-290.08
643.347	-381.08
643.466	-381.08
643.584	36.92
643.703	274.92
643.821	-155.08
643.94	-119.08
644.059	-42.08
644.177	63.92
644.296	-321.08
644.415	-243.08
644.533	-86.08
644.652	30.92
644.77	-399.08
644.889	-344.08
645.008	5.92
645.126	-249.08
645.245	-28.08
645.363	13.92
645.482	-61.08
645.6	-145.08
645.719	-186.08
645.837	-233.08
645.956	-38.08
646.074	-287.08
646.193	-254.08
646.312	-33.08
646.43	190.92
646.549	240.92
646.667	-461.08
646.786	-323.08
646.904	18.92
647.023	-28.08
647.141	-337.08
647.26	-41.08
647.378	422.92
647.496	-150.08
647.615	-68.08
647.733	-152.08
647.852	226.92
647.97	-213.08
648.089	-19.08
648.207	-13.08
648.326	115.92
648.444	-156.08
648.562	-170.08
648.681	-82.08
648.799	-170.08
648.918	-79.08
649.036	-142.08
649.154	-232.08
649.273	70.92
649.391	-165.08
649.51	-318.08
649.628	-325.08
649.746	176.92
649.865	-198.08
649.983	-328.08
650.101	-131.08
650.22	-98.08
650.338	-221.08
650.456	-206.08
650.575	-248.08
650.693	-287.08
650.811	-18.08
650.93	-370.08
651.048	1092.92
651.166	301.92
651.285	-126.08
651.403	-19.08
651.521	-127.08
651.639	-108.08
651.758	-119.08
651.876	177.92
651.994	-329.08
652.112	112.92
652.231	-86.08
652.349	-282.08
652.467	-464.08
652.585	-103.08
652.704	12.92
652.822	-395.08
652.94	-379.08
653.058	-59.08
653.176	-209.08
653.295	-174.08
653.413	-27.08
653.531	-229.08
653.649	-139.08
653.767	-311.08
653.886	-349.08
654.004	-220.08
654.122	130.92
654.24	-394.08
654.358	-333.08
654.476	-135.08
654.594	182.92
654.713	-217.08
654.831	-399.08
654.949	-163.08
655.067	-10.08
655.185	-340.08
655.303	-254.08
655.421	-163.08
655.539	104.92
655.658	-159.08
655.776	-250.08
655.894	11.92
656.012	176.92
656.13	-410.08
656.248	-222.08
656.366	-240.08
656.484	-148.08
656.602	-326.08
656.72	-300.08
656.838	-29.08
656.956	-162.08
657.074	-66.08
657.192	-121.08
657.31	-222.08
657.428	-167.08
657.546	-134.08
657.664	-147.08
657.782	-122.08
657.9	82.92
658.018	-252.08
658.136	-189.08
658.254	64.92
658.372	124.92
658.49	-332.08
658.608	-324.08
658.726	-9.08
658.844	8.92
658.962	-265.08
659.08	-356.08
659.198	-33.08
659.316	-134.08
