Data from HR4D30811__2__16-29-58-597.txt Node

Date: Fri Jan 26 16:29:58 MST 2024
User: Brock
Spectrometer: HR4D3081
Trigger mode: 4
Integration Time (sec): 8.000000E0
Scans to average: 1
Electric dark correction enabled: true
Nonlinearity correction enabled: false
Boxcar width: 0
XAxis mode: Wavelengths
Number of Pixels in Spectrum: 3648
>>>>>Begin Spectral Data<<<<<
197.25	-1166.92
197.385	-1166.92
197.519	-1166.92
197.653	-1222.92
197.787	172.08
197.922	-129.92
198.056	81.08
198.19	12.08
198.324	-2.92
198.459	-213.92
198.593	435.08
198.727	-36.92
198.861	-102.92
198.996	214.08
199.13	-267.92
199.264	-177.92
199.398	-73.92
199.533	264.08
199.667	123.08
199.801	-71.92
199.935	-267.92
200.07	-15.92
200.204	-19.92
200.338	-169.92
200.472	-156.92
200.606	-337.92
200.741	-167.92
200.875	-131.92
201.009	-131.92
201.143	-216.92
201.277	55.08
201.412	98.08
201.546	212.08
201.68	144.08
201.814	-159.92
201.948	62.08
202.082	-71.92
202.217	-334.92
202.351	-115.92
202.485	-27.92
202.619	-233.92
202.753	-325.92
202.887	279.08
203.021	109.08
203.156	215.08
203.29	57.08
203.424	-55.92
203.558	-174.92
203.692	-82.92
203.826	-272.92
203.96	-117.92
204.094	159.08
204.229	-165.92
204.363	-203.92
204.497	-326.92
204.631	-249.92
204.765	-197.92
204.899	-151.92
205.033	-152.92
205.167	-215.92
205.301	15.08
205.435	-332.92
205.569	-105.92
205.704	-46.92
205.838	-293.92
205.972	-143.92
206.106	497.08
206.24	-166.92
206.374	-209.92
206.508	35.08
206.642	33.08
206.776	-123.92
206.91	168.08
207.044	-2.92
207.178	133.08
207.312	-13.92
207.446	-137.92
207.58	-151.92
207.714	-274.92
207.848	152.08
207.982	-344.92
208.116	39.08
208.25	-230.92
208.384	-154.92
208.518	-172.92
208.652	-247.92
208.786	-259.92
208.92	175.08
209.054	-48.92
209.188	-290.92
209.322	-112.92
209.456	-114.92
209.59	-257.92
209.724	-96.92
209.858	-35.92
209.992	-116.92
210.126	-191.92
210.26	-180.92
210.394	-54.92
210.528	-14.92
210.662	-211.92
210.796	-202.92
210.929	134.08
211.063	11.08
211.197	-82.92
211.331	3.08
211.465	-239.92
211.599	51.08
211.733	108.08
211.867	-202.92
212.001	-190.92
212.135	-33.92
212.269	-254.92
212.402	-207.92
212.536	105.08
212.67	-116.92
212.804	-248.92
212.938	77.08
213.072	-206.92
213.206	-86.92
213.34	-171.92
213.473	-149.92
213.607	110.08
213.741	-277.92
213.875	-261.92
214.009	-215.92
214.143	-145.92
214.277	-138.92
214.41	-216.92
214.544	250.08
214.678	127.08
214.812	280.08
214.946	-240.92
215.08	-194.92
215.213	-195.92
215.347	-118.92
215.481	-97.92
215.615	-297.92
215.749	27.08
215.882	-229.92
216.016	-275.92
216.15	84.08
216.284	177.08
216.418	-11.92
216.551	108.08
216.685	33.08
216.819	-282.92
216.953	-174.92
217.086	252.08
217.22	-169.92
217.354	-22.92
217.488	76.08
217.621	115.08
217.755	-21.92
217.889	-146.92
218.023	-68.92
218.156	73.08
218.29	93.08
218.424	147.08
218.558	-238.92
218.691	-320.92
218.825	-104.92
218.959	403.08
219.092	-134.92
219.226	-308.92
219.36	-281.92
219.494	-53.92
219.627	-176.92
219.761	-211.92
219.895	-99.92
220.028	-304.92
220.162	539.08
220.296	127.08
220.429	-49.92
220.563	-77.92
220.697	-26.92
220.83	-243.92
220.964	-153.92
221.098	-265.92
221.231	-274.92
221.365	42.08
221.499	-202.92
221.632	-208.92
221.766	40.08
221.9	-90.92
222.033	90.08
222.167	86.08
222.3	-178.92
222.434	-27.92
222.568	240.08
222.701	-156.92
222.835	-125.92
222.968	-213.92
223.102	-220.92
223.236	-280.92
223.369	-4.92
223.503	31.08
223.636	-236.92
223.77	-163.92
223.904	21.08
224.037	-172.92
224.171	87.08
224.304	31.08
224.438	-174.92
224.571	-82.92
224.705	170.08
224.839	-20.92
224.972	-312.92
225.106	-58.92
225.239	-102.92
225.373	85.08
225.506	-67.92
225.64	81.08
225.773	-132.92
225.907	-202.92
226.04	-313.92
226.174	-113.92
226.307	-20.92
226.441	-155.92
226.575	-3.92
226.708	166.08
226.842	-117.92
226.975	-156.92
227.109	-207.92
227.242	16.08
227.375	39.08
227.509	-54.92
227.642	-144.92
227.776	43.08
227.909	61.08
228.043	-224.92
228.176	234.08
228.31	-235.92
228.443	299.08
228.577	-27.92
228.71	-144.92
228.844	-7.92
228.977	-270.92
229.111	-144.92
229.244	71.08
229.377	-293.92
229.511	-17.92
229.644	-169.92
229.778	-137.92
229.911	-190.92
230.044	-115.92
230.178	-31.92
230.311	-193.92
230.445	35.08
230.578	-199.92
230.711	-97.92
230.845	330.08
230.978	26.08
231.112	-209.92
231.245	-258.92
231.378	-197.92
231.512	42.08
231.645	-397.92
231.779	-315.92
231.912	-35.92
232.045	81.08
232.179	-157.92
232.312	-130.92
232.445	125.08
232.579	234.08
232.712	150.08
232.845	-196.92
232.979	-327.92
233.112	41.08
233.245	-79.92
233.379	-267.92
233.512	-12.92
233.645	-254.92
233.779	-233.92
233.912	11.08
234.045	-140.92
234.179	23.08
234.312	-141.92
234.445	36.08
234.578	-41.92
234.712	7.08
234.845	38.08
234.978	-164.92
235.112	-28.92
235.245	116.08
235.378	-176.92
235.511	-16.92
235.645	20.08
235.778	9.08
235.911	-166.92
236.044	-268.92
236.178	271.08
236.311	-268.92
236.444	-256.92
236.577	-250.92
236.711	-39.92
236.844	-392.92
236.977	-135.92
237.11	-203.92
237.243	27.08
237.377	-275.92
237.51	-246.92
237.643	932.08
237.776	-150.92
237.909	-108.92
238.043	-25.92
238.176	-216.92
238.309	-95.92
238.442	-308.92
238.575	-75.92
238.709	394.08
238.842	8.08
238.975	-14.92
239.108	152.08
239.241	-300.92
239.374	-219.92
239.508	-178.92
239.641	244.08
239.774	348.08
239.907	-41.92
240.04	-271.92
240.173	53.08
240.306	202.08
240.44	-133.92
240.573	173.08
240.706	-138.92
240.839	-4.92
240.972	-80.92
241.105	-56.92
241.238	26.08
241.371	-5.92
241.504	-47.92
241.638	-133.92
241.771	-38.92
241.904	-134.92
242.037	40.08
242.17	-205.92
242.303	-299.92
242.436	-87.92
242.569	-137.92
242.702	-193.92
242.835	-156.92
242.968	-33.92
243.101	-110.92
243.234	-209.92
243.367	-269.92
243.5	-118.92
243.634	-197.92
243.767	-273.92
243.9	-229.92
244.033	-251.92
244.166	55.08
244.299	-350.92
244.432	-246.92
244.565	-16.92
244.698	-331.92
244.831	-178.92
244.964	-267.92
245.097	-181.92
245.23	12.08
245.363	139.08
245.496	-286.92
245.629	-151.92
245.762	458.08
245.895	-252.92
246.028	-192.92
246.161	421.08
246.294	71.08
246.427	-228.92
246.559	94.08
246.692	-58.92
246.825	-135.92
246.958	-234.92
247.091	-283.92
247.224	-332.92
247.357	-175.92
247.49	145.08
247.623	-179.92
247.756	-265.92
247.889	300.08
248.022	-86.92
248.155	-267.92
248.288	-92.92
248.421	-251.92
248.553	89.08
248.686	-228.92
248.819	67.08
248.952	-245.92
249.085	166.08
249.218	-55.92
249.351	-101.92
249.484	177.08
249.617	-51.92
249.749	-228.92
249.882	-221.92
250.015	-261.92
250.148	-151.92
250.281	-244.92
250.414	-169.92
250.547	-149.92
250.679	191.08
250.812	-80.92
250.945	7.08
251.078	-233.92
251.211	-167.92
251.344	-260.92
251.476	-178.92
251.609	12.08
251.742	-272.92
251.875	-65.92
252.008	-187.92
252.14	-331.92
252.273	-132.92
252.406	171.08
252.539	-32.92
252.672	-89.92
252.804	122.08
252.937	-260.92
253.07	-26.92
253.203	-112.92
253.335	77.08
253.468	-345.92
253.601	-135.92
253.734	-87.92
253.866	-172.92
253.999	348.08
254.132	-8.92
254.265	-168.92
254.397	-164.92
254.53	-127.92
254.663	31.08
254.796	-224.92
254.928	-262.92
255.061	-225.92
255.194	-51.92
255.327	-321.92
255.459	-37.92
255.592	-282.92
255.725	178.08
255.857	-227.92
255.99	7.08
256.123	-198.92
256.255	-254.92
256.388	-99.92
256.521	-239.92
256.653	-324.92
256.786	-225.92
256.919	-169.92
257.051	-257.92
257.184	-29.92
257.317	-211.92
257.449	-223.92
257.582	-62.92
257.715	-192.92
257.847	-255.92
257.98	-91.92
258.113	-222.92
258.245	-111.92
258.378	-360.92
258.51	-236.92
258.643	-242.92
258.776	45.08
258.908	-283.92
259.041	-65.92
259.174	-177.92
259.306	-207.92
259.439	-311.92
259.571	-185.92
259.704	-112.92
259.837	169.08
259.969	-202.92
260.102	-214.92
260.234	237.08
260.367	54.08
260.499	-207.92
260.632	-153.92
260.765	-198.92
260.897	-197.92
261.03	-242.92
261.162	-55.92
261.295	-51.92
261.427	94.08
261.56	-79.92
261.692	-259.92
261.825	-73.92
261.957	111.08
262.09	117.08
262.222	31.08
262.355	-264.92
262.487	-111.92
262.62	-250.92
262.752	-92.92
262.885	-158.92
263.017	23.08
263.15	-209.92
263.282	-57.92
263.415	-228.92
263.547	-30.92
263.68	207.08
263.812	-302.92
263.945	-125.92
264.077	-254.92
264.21	200.08
264.342	-289.92
264.475	-230.92
264.607	180.08
264.74	-360.92
264.872	-96.92
265.004	119.08
265.137	72.08
265.269	348.08
265.402	-256.92
265.534	-179.92
265.667	-172.92
265.799	71.08
265.931	-98.92
266.064	21.08
266.196	-123.92
266.329	-207.92
266.461	-194.92
266.593	21.08
266.726	-326.92
266.858	-160.92
266.99	-80.92
267.123	-183.92
267.255	-64.92
267.388	-133.92
267.52	-246.92
267.652	-206.92
267.785	107.08
267.917	-15.92
268.049	-154.92
268.182	410.08
268.314	46.08
268.446	-319.92
268.579	-232.92
268.711	202.08
268.843	-211.92
268.976	-75.92
269.108	356.08
269.24	156.08
269.373	-24.92
269.505	-167.92
269.637	-136.92
269.77	-204.92
269.902	120.08
270.034	-266.92
270.167	23.08
270.299	-7.92
270.431	38.08
270.563	-182.92
270.696	-16.92
270.828	-87.92
270.96	-75.92
271.092	-2.92
271.225	-246.92
271.357	-76.92
271.489	-182.92
271.621	-245.92
271.754	530.08
271.886	-212.92
272.018	-180.92
272.15	291.08
272.283	-289.92
272.415	-154.92
272.547	106.08
272.679	103.08
272.811	-102.92
272.944	-115.92
273.076	-343.92
273.208	-35.92
273.34	-90.92
273.473	-129.92
273.605	66.08
273.737	-276.92
273.869	-39.92
274.001	-404.92
274.133	16.08
274.266	-208.92
274.398	1438.08
274.53	56.08
274.662	125.08
274.794	24.08
274.926	47.08
275.059	-201.92
275.191	-10.92
275.323	-236.92
275.455	93.08
275.587	-223.92
275.719	-151.92
275.851	-142.92
275.983	35.08
276.116	-7.92
276.248	105.08
276.38	-277.92
276.512	-1.92
276.644	-154.92
276.776	-229.92
276.908	-27.92
277.04	-111.92
277.172	40.08
277.304	-149.92
277.437	-3.92
277.569	-195.92
277.701	-248.92
277.833	-80.92
277.965	-186.92
278.097	64.08
278.229	-211.92
278.361	-153.92
278.493	134.08
278.625	236.08
278.757	-15.92
278.889	-246.92
279.021	-126.92
279.153	491.08
279.285	-240.92
279.417	587.08
279.549	76.08
279.681	-121.92
279.813	-172.92
279.945	67.08
280.077	-201.92
280.209	1071.08
280.341	-278.92
280.473	-129.92
280.605	67.08
280.737	-19.92
280.869	228.08
281.001	-66.92
281.133	-320.92
281.265	-3.92
281.397	-163.92
281.529	262.08
281.661	-254.92
281.793	-346.92
281.925	-215.92
282.057	-130.92
282.189	-156.92
282.321	-17.92
282.453	26.08
282.585	-268.92
282.717	135.08
282.849	-61.92
282.98	-164.92
283.112	-212.92
283.244	-18.92
283.376	-253.92
283.508	-352.92
283.64	-258.92
283.772	98.08
283.904	108.08
284.036	-289.92
284.168	137.08
284.299	-63.92
284.431	-11.92
284.563	-123.92
284.695	-176.92
284.827	-241.92
284.959	-28.92
285.091	-221.92
285.222	-238.92
285.354	-198.92
285.486	-92.92
285.618	-273.92
285.75	-135.92
285.882	203.08
286.013	50.08
286.145	-55.92
286.277	17.08
286.409	84.08
286.541	67.08
286.673	-233.92
286.804	-196.92
286.936	-57.92
287.068	-193.92
287.2	-224.92
287.332	277.08
287.463	-300.92
287.595	-64.92
287.727	399.08
287.859	-115.92
287.99	-100.92
288.122	-171.92
288.254	36.08
288.386	-161.92
288.517	-268.92
288.649	-143.92
288.781	-2.92
288.913	25.08
289.044	-297.92
289.176	186.08
289.308	-169.92
289.44	-353.92
289.571	-213.92
289.703	-235.92
289.835	51.08
289.967	-221.92
290.098	-310.92
290.23	-302.92
290.362	100.08
290.493	-319.92
290.625	-175.92
290.757	-192.92
290.888	-130.92
291.02	-18.92
291.152	-40.92
291.283	5.08
291.415	-160.92
291.547	-244.92
291.678	-223.92
291.81	-41.92
291.942	257.08
292.073	-26.92
292.205	-295.92
292.337	33.08
292.468	493.08
292.6	-200.92
292.732	565.08
292.863	-238.92
292.995	-282.92
293.126	0.08
293.258	195.08
293.39	-268.92
293.521	-244.92
293.653	-313.92
293.785	87.08
293.916	-138.92
294.048	17.08
294.179	12.08
294.311	-240.92
294.442	50.08
294.574	-285.92
294.706	-116.92
294.837	78.08
294.969	-24.92
295.1	-187.92
295.232	-266.92
295.363	176.08
295.495	-192.92
295.627	2.08
295.758	130.08
295.89	-326.92
296.021	3.08
296.153	18.08
296.284	-91.92
296.416	-117.92
296.547	-167.92
296.679	-50.92
296.81	-55.92
296.942	-323.92
297.073	-251.92
297.205	-300.92
297.336	-164.92
297.468	-222.92
297.599	-75.92
297.731	-361.92
297.862	-115.92
297.994	-312.92
298.125	-259.92
298.257	-123.92
298.388	32.08
298.52	12.08
298.651	-109.92
298.782	261.08
298.914	-249.92
299.045	-163.92
299.177	-284.92
299.308	-291.92
299.44	36.08
299.571	-23.92
299.702	-121.92
299.834	-90.92
299.965	-137.92
300.097	-232.92
300.228	-59.92
300.36	-88.92
300.491	-74.92
300.622	-31.92
300.754	-125.92
300.885	-187.92
301.017	-69.92
301.148	-170.92
301.279	-292.92
301.411	-23.92
301.542	-40.92
301.673	-39.92
301.805	-13.92
301.936	-205.92
302.067	-127.92
302.199	-170.92
302.33	-261.92
302.461	336.08
302.593	-9.92
302.724	-32.92
302.855	-305.92
302.987	-89.92
303.118	-272.92
303.249	-341.92
303.381	-138.92
303.512	-188.92
303.643	-211.92
303.775	125.08
303.906	-260.92
304.037	-256.92
304.169	-216.92
304.3	-144.92
304.431	-254.92
304.562	-216.92
304.694	-152.92
304.825	-56.92
304.956	94.08
305.087	-190.92
305.219	42.08
305.35	-92.92
305.481	-206.92
305.612	46.08
305.744	-8.92
305.875	-159.92
306.006	487.08
306.137	-214.92
306.269	-50.92
306.4	37.08
306.531	100.08
306.662	-128.92
306.794	122.08
306.925	-216.92
307.056	-259.92
307.187	-32.92
307.318	-143.92
307.45	-145.92
307.581	-234.92
307.712	-235.92
307.843	-95.92
307.974	-65.92
308.105	124.08
308.237	-70.92
308.368	-270.92
308.499	-166.92
308.63	5.08
308.761	-138.92
308.892	-88.92
309.024	-149.92
309.155	-210.92
309.286	-160.92
309.417	-249.92
309.548	-124.92
309.679	-142.92
309.81	-383.92
309.941	444.08
310.073	-39.92
310.204	-316.92
310.335	4.08
310.466	-172.92
310.597	-270.92
310.728	-164.92
310.859	334.08
310.99	278.08
311.121	-81.92
311.252	-96.92
311.383	-217.92
311.514	-2.92
311.646	-166.92
311.777	-28.92
311.908	-43.92
312.039	-106.92
312.17	-325.92
312.301	-122.92
312.432	-211.92
312.563	-326.92
312.694	-48.92
312.825	-163.92
312.956	-219.92
313.087	51.08
313.218	58.08
313.349	-156.92
313.48	-357.92
313.611	-125.92
313.742	-98.92
313.873	89.08
314.004	-25.92
314.135	-162.92
314.266	-47.92
314.397	-163.92
314.528	-286.92
314.659	-245.92
314.79	-227.92
314.921	29.08
315.052	12.08
315.183	-250.92
315.314	-292.92
315.445	52.08
315.576	-77.92
315.707	-129.92
315.838	-165.92
315.968	-30.92
316.099	-257.92
316.23	-308.92
316.361	97.08
316.492	-134.92
316.623	53.08
316.754	154.08
316.885	-404.92
317.016	-303.92
317.147	-361.92
317.278	76.08
317.408	-268.92
317.539	-262.92
317.67	-271.92
317.801	-10.92
317.932	-147.92
318.063	-191.92
318.194	-159.92
318.325	-24.92
318.455	-360.92
318.586	-139.92
318.717	-44.92
318.848	-326.92
318.979	110.08
319.11	272.08
319.24	47.08
319.371	72.08
319.502	-85.92
319.633	-209.92
319.764	-128.92
319.895	-241.92
320.025	-98.92
320.156	-282.92
320.287	-402.92
320.418	-233.92
320.549	-82.92
320.679	-329.92
320.81	122.08
320.941	-323.92
321.072	-312.92
321.202	-2.92
321.333	252.08
321.464	-379.92
321.595	-244.92
321.726	241.08
321.856	-353.92
321.987	-175.92
322.118	-216.92
322.249	-13.92
322.379	-83.92
322.51	4.08
322.641	-66.92
322.771	-318.92
322.902	-78.92
323.033	-94.92
323.164	690.08
323.294	-194.92
323.425	-220.92
323.556	-187.92
323.686	-100.92
323.817	288.08
323.948	-16.92
324.078	-144.92
324.209	143.08
324.34	-197.92
324.47	176.08
324.601	-183.92
324.732	-74.92
324.862	17.08
324.993	-205.92
325.124	-428.92
325.254	-63.92
325.385	-90.92
325.516	522.08
325.646	406.08
325.777	-136.92
325.908	-168.92
326.038	53.08
326.169	-150.92
326.299	-49.92
326.43	145.08
326.561	-154.92
326.691	-156.92
326.822	-253.92
326.952	-214.92
327.083	-39.92
327.214	-251.92
327.344	-103.92
327.475	-6.92
327.605	-45.92
327.736	-183.92
327.867	-303.92
327.997	-150.92
328.128	-62.92
328.258	-313.92
328.389	218.08
328.519	-286.92
328.65	35.08
328.78	-222.92
328.911	-16.92
329.041	66.08
329.172	-340.92
329.303	-213.92
329.433	-179.92
329.564	-261.92
329.694	-248.92
329.825	-211.92
329.955	-64.92
330.086	429.08
330.216	-160.92
330.347	-252.92
330.477	-109.92
330.608	-116.92
330.738	-132.92
330.868	-326.92
330.999	-172.92
331.129	129.08
331.26	-217.92
331.39	-209.92
331.521	152.08
331.651	50.08
331.782	-359.92
331.912	-249.92
332.043	-251.92
332.173	70.08
332.303	-336.92
332.434	113.08
332.564	-18.92
332.695	-216.92
332.825	-336.92
332.956	-209.92
333.086	-122.92
333.216	-254.92
333.347	-52.92
333.477	-391.92
333.608	-97.92
333.738	9.08
333.868	-151.92
333.999	-68.92
334.129	84.08
334.259	-68.92
334.39	-222.92
334.52	35.08
334.65	-175.92
334.781	92.08
334.911	-219.92
335.042	-289.92
335.172	-12.92
335.302	-105.92
335.433	249.08
335.563	-251.92
335.693	33.08
335.824	242.08
335.954	-381.92
336.084	-13.92
336.214	-32.92
336.345	316.08
336.475	71.08
336.605	-249.92
336.736	296.08
336.866	-100.92
336.996	-173.92
337.126	-273.92
337.257	-65.92
337.387	-356.92
337.517	-240.92
337.648	-332.92
337.778	178.08
337.908	48.08
338.038	12.08
338.169	-171.92
338.299	223.08
338.429	-30.92
338.559	-238.92
338.69	-156.92
338.82	421.08
338.95	-22.92
339.08	-438.92
339.21	-293.92
339.341	-67.92
339.471	30.08
339.601	-107.92
339.731	-29.92
339.861	-156.92
339.992	-129.92
340.122	-117.92
340.252	-222.92
340.382	-201.92
340.512	-123.92
340.642	163.08
340.773	-70.92
340.903	-297.92
341.033	-90.92
341.163	-37.92
341.293	115.08
341.423	-216.92
341.554	-268.92
341.684	3.08
341.814	-147.92
341.944	-172.92
342.074	-95.92
342.204	-174.92
342.334	157.08
342.464	-267.92
342.595	-135.92
342.725	-304.92
342.855	-58.92
342.985	-152.92
343.115	-254.92
343.245	-357.92
343.375	-20.92
343.505	-118.92
343.635	-22.92
343.765	-193.92
343.895	-392.92
344.025	47.08
344.155	-301.92
344.286	-201.92
344.416	-72.92
344.546	128.08
344.676	-97.92
344.806	169.08
344.936	-49.92
345.066	209.08
345.196	-260.92
345.326	-292.92
345.456	120.08
345.586	-248.92
345.716	-270.92
345.846	47.08
345.976	-353.92
346.106	-92.92
346.236	74.08
346.366	14.08
346.496	-166.92
346.626	-169.92
346.756	-205.92
346.886	-265.92
347.016	-329.92
347.146	-231.92
347.276	-268.92
347.406	-218.92
347.536	-63.92
347.666	101.08
347.795	-243.92
347.925	-174.92
348.055	108.08
348.185	-183.92
348.315	-179.92
348.445	120.08
348.575	-176.92
348.705	-283.92
348.835	-260.92
348.965	-156.92
349.095	-31.92
349.225	264.08
349.354	-272.92
349.484	-158.92
349.614	-164.92
349.744	-262.92
349.874	-246.92
350.004	-322.92
350.134	-249.92
350.264	-339.92
350.393	-311.92
350.523	123.08
350.653	-321.92
350.783	5.08
350.913	138.08
351.043	-244.92
351.173	-199.92
351.302	-16.92
351.432	158.08
351.562	-99.92
351.692	-68.92
351.822	-179.92
351.951	-365.92
352.081	184.08
352.211	-99.92
352.341	150.08
352.471	137.08
352.6	-164.92
352.73	-233.92
352.86	-163.92
352.99	-21.92
353.12	-81.92
353.249	-53.92
353.379	-245.92
353.509	35.08
353.639	-308.92
353.768	-81.92
353.898	-209.92
354.028	-304.92
354.158	-160.92
354.287	-184.92
354.417	-279.92
354.547	-267.92
354.677	-347.92
354.806	-120.92
354.936	37.08
355.066	-188.92
355.195	1.08
355.325	-21.92
355.455	-287.92
355.584	209.08
355.714	-211.92
355.844	116.08
355.974	-27.92
356.103	-106.92
356.233	-148.92
356.363	41.08
356.492	-255.92
356.622	-281.92
356.752	-46.92
356.881	-350.92
357.011	54.08
357.14	136.08
357.27	-161.92
357.4	61.08
357.529	-162.92
357.659	117.08
357.789	59.08
357.918	-318.92
358.048	-328.92
358.177	-133.92
358.307	-268.92
358.437	-86.92
358.566	-223.92
358.696	73.08
358.825	131.08
358.955	-299.92
359.085	0.08
359.214	-403.92
359.344	-103.92
359.473	-273.92
359.603	-141.92
359.733	-210.92
359.862	-333.92
359.992	78.08
360.121	-180.92
360.251	16.08
360.38	-358.92
360.51	98.08
360.639	-155.92
360.769	-72.92
360.898	75.08
361.028	62.08
361.157	-114.92
361.287	-59.92
361.416	-254.92
361.546	-144.92
361.675	-134.92
361.805	-170.92
361.934	25.08
362.064	-147.92
362.193	-190.92
362.323	-299.92
362.452	88.08
362.582	-271.92
362.711	-131.92
362.841	24.08
362.97	6.08
363.1	-265.92
363.229	-325.92
363.359	-149.92
363.488	-207.92
363.617	-114.92
363.747	-84.92
363.876	-357.92
364.006	-20.92
364.135	-115.92
364.265	-155.92
364.394	-177.92
364.523	273.08
364.653	-250.92
364.782	-15.92
364.912	-263.92
365.041	-297.92
365.17	-259.92
365.3	-6.92
365.429	187.08
365.558	-164.92
365.688	-228.92
365.817	-269.92
365.947	-64.92
366.076	-74.92
366.205	-104.92
366.335	-349.92
366.464	-231.92
366.593	92.08
366.723	-158.92
366.852	-123.92
366.981	-82.92
367.111	-249.92
367.24	-142.92
367.369	-152.92
367.499	495.08
367.628	131.08
367.757	-160.92
367.886	-24.92
368.016	123.08
368.145	-99.92
368.274	-69.92
368.404	-308.92
368.533	-83.92
368.662	20.08
368.791	-202.92
368.921	-362.92
369.05	150.08
369.179	-66.92
369.308	305.08
369.438	-311.92
369.567	-357.92
369.696	-156.92
369.825	-10.92
369.955	-155.92
370.084	-22.92
370.213	-81.92
370.342	-298.92
370.472	-295.92
370.601	406.08
370.73	29.08
370.859	-411.92
370.988	-163.92
371.118	-282.92
371.247	7.08
371.376	71.08
371.505	-75.92
371.634	-29.92
371.763	-135.92
371.893	-269.92
372.022	-150.92
372.151	-247.92
372.28	-340.92
372.409	-386.92
372.538	-160.92
372.667	-72.92
372.797	104.08
372.926	-334.92
373.055	-65.92
373.184	-140.92
373.313	-220.92
373.442	-7.92
373.571	-231.92
373.7	-132.92
373.83	-41.92
373.959	-397.92
374.088	-169.92
374.217	85.08
374.346	-175.92
374.475	-371.92
374.604	-231.92
374.733	260.08
374.862	-140.92
374.991	-254.92
375.12	-56.92
375.249	-61.92
375.378	-231.92
375.508	-331.92
375.637	-275.92
375.766	59.08
375.895	-183.92
376.024	160.08
376.153	-259.92
376.282	-116.92
376.411	-235.92
376.54	-431.92
376.669	-59.92
376.798	-163.92
376.927	-259.92
377.056	89.08
377.185	-77.92
377.314	77.08
377.443	273.08
377.572	-289.92
377.701	-306.92
377.83	184.08
377.959	-6.92
378.088	1680.08
378.217	101.08
378.346	-189.92
378.474	-383.92
378.603	-304.92
378.732	-57.92
378.861	-185.92
378.99	-292.92
379.119	-388.92
379.248	-80.92
379.377	-177.92
379.506	-179.92
379.635	129.08
379.764	-72.92
379.893	-256.92
380.022	-309.92
380.15	-71.92
380.279	-344.92
380.408	-251.92
380.537	-168.92
380.666	15.08
380.795	-55.92
380.924	-156.92
381.053	-260.92
381.181	-83.92
381.31	725.08
381.439	-277.92
381.568	-164.92
381.697	-160.92
381.826	-128.92
381.955	-236.92
382.083	-104.92
382.212	-337.92
382.341	21.08
382.47	-260.92
382.599	-167.92
382.727	246.08
382.856	-46.92
382.985	-45.92
383.114	-161.92
383.243	-226.92
383.371	-97.92
383.5	-238.92
383.629	-266.92
383.758	-255.92
383.887	-403.92
384.015	-68.92
384.144	-295.92
384.273	-87.92
384.402	-29.92
384.53	-261.92
384.659	-275.92
384.788	-280.92
384.917	-243.92
385.045	-95.92
385.174	-137.92
385.303	-378.92
385.432	25.08
385.56	-89.92
385.689	-174.92
385.818	-75.92
385.946	-25.92
386.075	-232.92
386.204	-305.92
386.332	-105.92
386.461	55.08
386.59	-0.92
386.718	-345.92
386.847	-160.92
386.976	-180.92
387.104	-349.92
387.233	-290.92
387.362	-44.92
387.49	-83.92
387.619	-285.92
387.748	-154.92
387.876	140.08
388.005	-86.92
388.134	102.08
388.262	-323.92
388.391	-251.92
388.52	-47.92
388.648	-310.92
388.777	75.08
388.905	-246.92
389.034	-165.92
389.163	-227.92
389.291	-116.92
389.42	40.08
389.548	65.08
389.677	-93.92
389.805	-122.92
389.934	-36.92
390.063	-291.92
390.191	-344.92
390.32	-225.92
390.448	-158.92
390.577	-278.92
390.705	-312.92
390.834	-149.92
390.962	-330.92
391.091	-269.92
391.22	89.08
391.348	161.08
391.477	-25.92
391.605	-332.92
391.734	-224.92
391.862	-228.92
391.991	-301.92
392.119	-274.92
392.248	-143.92
392.376	-90.92
392.505	-152.92
392.633	-207.92
392.762	312.08
392.89	-298.92
393.018	54.08
393.147	-192.92
393.275	-358.92
393.404	-277.92
393.532	-219.92
393.661	-113.92
393.789	-61.92
393.918	-110.92
394.046	-135.92
394.174	-134.92
394.303	-343.92
394.431	-217.92
394.56	78.08
394.688	-321.92
394.817	-381.92
394.945	85.08
395.073	58.08
395.202	-72.92
395.33	-166.92
395.459	-148.92
395.587	97.08
395.715	44.08
395.844	-100.92
395.972	-401.92
396.1	107.08
396.229	-272.92
396.357	-71.92
396.485	-211.92
396.614	-272.92
396.742	62.08
396.87	-101.92
396.999	-16.92
397.127	-312.92
397.255	-62.92
397.384	76.08
397.512	-352.92
397.64	-259.92
397.769	-142.92
397.897	-48.92
398.025	-168.92
398.154	-88.92
398.282	173.08
398.41	-80.92
398.538	-70.92
398.667	-210.92
398.795	-199.92
398.923	32.08
399.052	-184.92
399.18	-166.92
399.308	-120.92
399.436	171.08
399.565	-303.92
399.693	-56.92
399.821	-161.92
399.949	-191.92
400.078	290.08
400.206	-330.92
400.334	-320.92
400.462	-157.92
400.59	-341.92
400.719	-231.92
400.847	-277.92
400.975	-53.92
401.103	-253.92
401.231	-77.92
401.36	-115.92
401.488	-13.92
401.616	-187.92
401.744	-185.92
401.872	-238.92
402	-32.92
402.129	-190.92
402.257	-280.92
402.385	-180.92
402.513	-107.92
402.641	-182.92
402.769	-143.92
402.897	-252.92
403.026	-335.92
403.154	-371.92
403.282	-306.92
403.41	-187.92
403.538	178.08
403.666	-344.92
403.794	-154.92
403.922	-94.92
404.05	-63.92
404.179	-127.92
404.307	-82.92
404.435	-270.92
404.563	-297.92
404.691	-358.92
404.819	453.08
404.947	-278.92
405.075	-246.92
405.203	-361.92
405.331	-229.92
405.459	-297.92
405.587	-63.92
405.715	-234.92
405.843	-211.92
405.971	-107.92
406.099	105.08
406.227	-27.92
406.355	-159.92
406.483	-369.92
406.611	-33.92
406.739	-299.92
406.867	-312.92
406.995	-219.92
407.123	-169.92
407.251	-399.92
407.379	-318.92
407.507	-31.92
407.635	-164.92
407.763	-447.92
407.891	-411.92
408.019	-27.92
408.147	17.08
408.275	179.08
408.403	-349.92
408.531	-377.92
408.659	184.08
408.787	-94.92
408.915	-226.92
409.043	-245.92
409.171	76.08
409.299	19.08
409.427	63.08
409.554	-346.92
409.682	271.08
409.81	-109.92
409.938	-218.92
410.066	32.08
410.194	-61.92
410.322	-290.92
410.45	-198.92
410.578	-362.92
410.705	-292.92
410.833	-121.92
410.961	70.08
411.089	305.08
411.217	-184.92
411.345	-142.92
411.473	-249.92
411.6	-96.92
411.728	-183.92
411.856	-328.92
411.984	-302.92
412.112	-261.92
412.239	-74.92
412.367	-204.92
412.495	100.08
412.623	-265.92
412.751	34.08
412.878	-382.92
413.006	-180.92
413.134	65.08
413.262	173.08
413.39	-44.92
413.517	-54.92
413.645	39.08
413.773	-341.92
413.901	210.08
414.028	-180.92
414.156	-137.92
414.284	-263.92
414.412	56.08
414.539	-207.92
414.667	-231.92
414.795	-228.92
414.923	-385.92
415.05	-191.92
415.178	-41.92
415.306	338.08
415.433	-263.92
415.561	85.08
415.689	54.08
415.816	-227.92
415.944	181.08
416.072	-310.92
416.2	-0.92
416.327	233.08
416.455	-244.92
416.583	-207.92
416.71	-243.92
416.838	141.08
416.966	-315.92
417.093	-182.92
417.221	52.08
417.348	-39.92
417.476	-336.92
417.604	-175.92
417.731	-148.92
417.859	34.08
417.987	-85.92
418.114	-309.92
418.242	86.08
418.369	-210.92
418.497	-326.92
418.625	154.08
418.752	-108.92
418.88	-280.92
419.007	161.08
419.135	-53.92
419.263	-218.92
419.39	58.08
419.518	34.08
419.645	-14.92
419.773	619.08
419.9	1726.08
420.028	4233.08
420.155	5016.08
420.283	7026.08
420.41	8003.08
420.538	8860.08
420.666	9479.08
420.793	9645.08
420.921	8783.08
421.048	7023.08
421.176	4790.08
421.303	2406.08
421.431	703.08
421.558	-54.92
421.686	227.08
421.813	63.08
421.941	-185.92
422.068	-68.92
422.195	84.08
422.323	40.08
422.45	-359.92
422.578	-101.92
422.705	-219.92
422.833	-126.92
422.96	-260.92
423.088	-4.92
423.215	352.08
423.343	309.08
423.47	-93.92
423.597	222.08
423.725	-114.92
423.852	-123.92
423.98	-78.92
424.107	-362.92
424.234	-163.92
424.362	-211.92
424.489	-247.92
424.617	545.08
424.744	-59.92
424.871	-274.92
424.999	-135.92
425.126	94.08
425.253	-31.92
425.381	-206.92
425.508	-291.92
425.636	8.08
425.763	-202.92
425.89	-218.92
426.018	-338.92
426.145	-161.92
426.272	-55.92
426.4	39.08
426.527	88.08
426.654	-283.92
426.781	-32.92
426.909	-118.92
427.036	-81.92
427.163	-382.92
427.291	-308.92
427.418	-166.92
427.545	-140.92
427.673	-342.92
427.8	-386.92
427.927	-311.92
428.054	-78.92
428.182	-182.92
428.309	-208.92
428.436	-256.92
428.563	-305.92
428.691	-103.92
428.818	-245.92
428.945	20.08
429.072	-323.92
429.2	3.08
429.327	-51.92
429.454	10.08
429.581	-139.92
429.708	-378.92
429.836	-255.92
429.963	-217.92
430.09	-276.92
430.217	-206.92
430.344	-303.92
430.472	-279.92
430.599	-22.92
430.726	-225.92
430.853	-128.92
430.98	-57.92
431.107	-285.92
431.235	-128.92
431.362	-35.92
431.489	-127.92
431.616	245.08
431.743	73.08
431.87	-343.92
431.997	-186.92
432.125	-79.92
432.252	-436.92
432.379	-188.92
432.506	-36.92
432.633	-272.92
432.76	-161.92
432.887	112.08
433.014	-213.92
433.141	-260.92
433.268	-57.92
433.395	-232.92
433.523	-181.92
433.65	-175.92
433.777	-224.92
433.904	-181.92
434.031	-371.92
434.158	-120.92
434.285	38.08
434.412	-374.92
434.539	-134.92
434.666	-264.92
434.793	-243.92
434.92	-262.92
435.047	-21.92
435.174	-168.92
435.301	10.08
435.428	271.08
435.555	161.08
435.682	-66.92
435.809	-313.92
435.936	112.08
436.063	-247.92
436.19	103.08
436.317	-263.92
436.444	-12.92
436.571	-242.92
436.698	-21.92
436.825	89.08
436.952	-26.92
437.079	-69.92
437.206	-9.92
437.333	-304.92
437.46	-188.92
437.587	-140.92
437.714	-322.92
437.84	-171.92
437.967	-346.92
438.094	-370.92
438.221	38.08
438.348	-165.92
438.475	8037.08
438.602	-316.92
438.729	-429.92
438.856	-252.92
438.983	-302.92
439.109	-25.92
439.236	33.08
439.363	-384.92
439.49	-231.92
439.617	-136.92
439.744	-288.92
439.871	435.08
439.997	-252.92
440.124	-86.92
440.251	-85.92
440.378	-240.92
440.505	-218.92
440.632	74.08
440.758	131.08
440.885	231.08
441.012	-275.92
441.139	16.08
441.266	-317.92
441.392	-218.92
441.519	-310.92
441.646	-358.92
441.773	-74.92
441.9	208.08
442.026	-218.92
442.153	-110.92
442.28	-60.92
442.407	-264.92
442.533	28.08
442.66	-53.92
442.787	-95.92
442.914	-268.92
443.04	-223.92
443.167	-162.92
443.294	-113.92
443.421	-107.92
443.547	-325.92
443.674	-144.92
443.801	-54.92
443.927	63.08
444.054	422.08
444.181	63.08
444.307	91.08
444.434	-46.92
444.561	-298.92
444.688	-370.92
444.814	20.08
444.941	-194.92
445.068	-304.92
445.194	259.08
445.321	-288.92
445.447	176.08
445.574	-361.92
445.701	-356.92
445.827	-162.92
445.954	-425.92
446.081	-13.92
446.207	-303.92
446.334	-137.92
446.461	-208.92
446.587	-395.92
446.714	5.08
446.84	59.08
446.967	-256.92
447.094	-219.92
447.22	71.08
447.347	-161.92
447.473	-294.92
447.6	-66.92
447.726	-375.92
447.853	-128.92
447.98	-141.92
448.106	-102.92
448.233	-129.92
448.359	-237.92
448.486	-67.92
448.612	-224.92
448.739	-60.92
448.865	78.08
448.992	192.08
449.118	-243.92
449.245	-337.92
449.371	-273.92
449.498	-119.92
449.624	-10.92
449.751	-120.92
449.877	-250.92
450.004	-134.92
450.13	-127.92
450.257	-307.92
450.383	-161.92
450.51	-388.92
450.636	-252.92
450.763	-219.92
450.889	-251.92
451.016	-421.92
451.142	-63.92
451.269	-270.92
451.395	268.08
451.521	-188.92
451.648	-249.92
451.774	-115.92
451.901	-392.92
452.027	-161.92
452.154	59.08
452.28	-183.92
452.406	-252.92
452.533	-254.92
452.659	-331.92
452.785	-218.92
452.912	-300.92
453.038	-339.92
453.165	-63.92
453.291	108.08
453.417	176.08
453.544	-318.92
453.67	-236.92
453.796	91.08
453.923	-314.92
454.049	-223.92
454.175	-256.92
454.302	-221.92
454.428	-47.92
454.554	-90.92
454.681	-269.92
454.807	-263.92
454.933	252.08
455.06	-114.92
455.186	-187.92
455.312	85.08
455.439	56.08
455.565	-353.92
455.691	-311.92
455.817	-0.92
455.944	77.08
456.07	-156.92
456.196	-20.92
456.322	-399.92
456.449	-357.92
456.575	-132.92
456.701	-255.92
456.827	-275.92
456.954	-352.92
457.08	-265.92
457.206	-420.92
457.332	-149.92
457.459	-373.92
457.585	-274.92
457.711	-264.92
457.837	-22.92
457.963	-112.92
458.09	-312.92
458.216	-349.92
458.342	-184.92
458.468	-173.92
458.594	-167.92
458.721	-111.92
458.847	-89.92
458.973	-321.92
459.099	-199.92
459.225	-239.92
459.351	-214.92
459.477	-86.92
459.604	-344.92
459.73	-244.92
459.856	-289.92
459.982	-124.92
460.108	-412.92
460.234	-453.92
460.36	-180.92
460.486	-1.92
460.613	-290.92
460.739	64.08
460.865	-241.92
460.991	216.08
461.117	164.08
461.243	-289.92
461.369	-341.92
461.495	-232.92
461.621	-146.92
461.747	-101.92
461.873	-11.92
461.999	-288.92
462.125	-186.92
462.252	43.08
462.378	-89.92
462.504	-54.92
462.63	-106.92
462.756	-339.92
462.882	-230.92
463.008	-221.92
463.134	76.08
463.26	-365.92
463.386	-231.92
463.512	-104.92
463.638	-235.92
463.764	-344.92
463.89	-180.92
464.016	48.08
464.142	-63.92
464.268	-306.92
464.394	-222.92
464.52	-332.92
464.645	-116.92
464.771	1.08
464.897	-250.92
465.023	-228.92
465.149	-142.92
465.275	-332.92
465.401	-291.92
465.527	88.08
465.653	-139.92
465.779	47.08
465.905	-338.92
466.031	-87.92
466.157	-280.92
466.282	-233.92
466.408	-251.92
466.534	-131.92
466.66	-411.92
466.786	-178.92
466.912	-116.92
467.038	-145.92
467.164	-192.92
467.289	-234.92
467.415	-193.92
467.541	-162.92
467.667	-198.92
467.793	-217.92
467.919	-80.92
468.045	149.08
468.17	-287.92
468.296	-141.92
468.422	-238.92
468.548	31.08
468.674	-414.92
468.799	-289.92
468.925	-234.92
469.051	-335.92
469.177	-391.92
469.303	-388.92
469.428	-13.92
469.554	-298.92
469.68	-265.92
469.806	-74.92
469.931	-156.92
470.057	338.08
470.183	-494.92
470.309	-261.92
470.434	121.08
470.56	-185.92
470.686	-117.92
470.812	-184.92
470.937	-290.92
471.063	-275.92
471.189	-73.92
471.315	57.08
471.44	-145.92
471.566	-188.92
471.692	41.08
471.817	-268.92
471.943	-164.92
472.069	-46.92
472.194	-184.92
472.32	-264.92
472.446	-45.92
472.571	-300.92
472.697	-250.92
472.823	-97.92
472.948	-336.92
473.074	-133.92
473.2	-194.92
473.325	-329.92
473.451	-188.92
473.577	-187.92
473.702	-422.92
473.828	-186.92
473.953	-342.92
474.079	-120.92
474.205	-340.92
474.33	-355.92
474.456	-250.92
474.581	177.08
474.707	-195.92
474.833	-239.92
474.958	-41.92
475.084	-11.92
475.209	-271.92
475.335	-295.92
475.46	-109.92
475.586	-214.92
475.712	-73.92
475.837	-205.92
475.963	-214.92
476.088	-398.92
476.214	-284.92
476.339	-247.92
476.465	-257.92
476.59	-348.92
476.716	97.08
476.841	-313.92
476.967	190.08
477.092	-225.92
477.218	-120.92
477.343	-325.92
477.469	216.08
477.594	-246.92
477.72	-317.92
477.845	-114.92
477.971	-203.92
478.096	-150.92
478.222	-214.92
478.347	3250.08
478.472	-4.92
478.598	-262.92
478.723	-256.92
478.849	30.08
478.974	-80.92
479.1	-312.92
479.225	-114.92
479.35	-263.92
479.476	-55.92
479.601	-303.92
479.727	47.08
479.852	-305.92
479.977	-109.92
480.103	-165.92
480.228	183.08
480.354	-162.92
480.479	77.08
480.604	-252.92
480.73	-270.92
480.855	-430.92
480.98	39.08
481.106	-376.92
481.231	-402.92
481.356	-301.92
481.482	-417.92
481.607	-314.92
481.732	-459.92
481.858	-229.92
481.983	-327.92
482.108	-282.92
482.234	-395.92
482.359	-251.92
482.484	108.08
482.61	-323.92
482.735	-137.92
482.86	-377.92
482.985	-223.92
483.111	-195.92
483.236	-88.92
483.361	-249.92
483.486	-310.92
483.612	39.08
483.737	-435.92
483.862	-177.92
483.987	-89.92
484.113	-435.92
484.238	-54.92
484.363	-340.92
484.488	-244.92
484.614	-21.92
484.739	-205.92
484.864	70.08
484.989	431.08
485.114	-106.92
485.24	-186.92
485.365	-251.92
485.49	-426.92
485.615	-7.92
485.74	-171.92
485.865	-87.92
485.991	-122.92
486.116	-74.92
486.241	-377.92
486.366	-340.92
486.491	-45.92
486.616	-278.92
486.742	-218.92
486.867	-188.92
486.992	-334.92
487.117	-308.92
487.242	-319.92
487.367	-441.92
487.492	-211.92
487.617	-36.92
487.742	-192.92
487.868	-294.92
487.993	-36.92
488.118	-76.92
488.243	-127.92
488.368	-254.92
488.493	-427.92
488.618	-264.92
488.743	-239.92
488.868	-301.92
488.993	-195.92
489.118	19.08
489.243	-171.92
489.368	-261.92
489.493	11.08
489.618	-152.92
489.743	-342.92
489.868	-180.92
489.993	-256.92
490.118	-406.92
490.243	377.08
490.368	-274.92
490.493	-51.92
490.618	4.08
490.743	-420.92
490.868	-148.92
490.993	-175.92
491.118	-24.92
491.243	-308.92
491.368	-149.92
491.493	-31.92
491.618	-180.92
491.743	-223.92
491.868	-256.92
491.993	-225.92
492.118	-266.92
492.243	-124.92
492.368	-88.92
492.493	-301.92
492.618	115.08
492.743	-260.92
492.867	-1.92
492.992	-147.92
493.117	-12.92
493.242	-282.92
493.367	-162.92
493.492	53.08
493.617	-267.92
493.742	80.08
493.867	-245.92
493.991	-385.92
494.116	-143.92
494.241	-161.92
494.366	-221.92
494.491	-57.92
494.616	41.08
494.74	-295.92
494.865	-372.92
494.99	-255.92
495.115	-210.92
495.24	-171.92
495.365	-243.92
495.489	-212.92
495.614	-115.92
495.739	-209.92
495.864	-214.92
495.989	-403.92
496.113	-13.92
496.238	-114.92
496.363	-252.92
496.488	-334.92
496.612	-5.92
496.737	-274.92
496.862	-231.92
496.987	-242.92
497.111	-317.92
497.236	-331.92
497.361	-311.92
497.486	62.08
497.61	-9.92
497.735	-192.92
497.86	-53.92
497.984	-69.92
498.109	-397.92
498.234	-265.92
498.359	-259.92
498.483	-188.92
498.608	-142.92
498.733	-238.92
498.857	-338.92
498.982	-191.92
499.107	-389.92
499.231	-149.92
499.356	-240.92
499.481	112.08
499.605	-485.92
499.73	-364.92
499.855	10.08
499.979	-308.92
500.104	-180.92
500.228	141.08
500.353	-227.92
500.478	-347.92
500.602	-137.92
500.727	80.08
500.852	-87.92
500.976	-420.92
501.101	-266.92
501.225	131.08
501.35	-309.92
501.474	-327.92
501.599	-33.92
501.724	-218.92
501.848	-179.92
501.973	110.08
502.097	-335.92
502.222	-380.92
502.346	-20.92
502.471	-133.92
502.595	-288.92
502.72	-355.92
502.844	-353.92
502.969	-224.92
503.094	119.08
503.218	-380.92
503.343	-264.92
503.467	-297.92
503.592	-244.92
503.716	-256.92
503.841	-139.92
503.965	191.08
504.089	-178.92
504.214	-363.92
504.338	-222.92
504.463	-8.92
504.587	-93.92
504.712	-155.92
504.836	-184.92
504.961	256.08
505.085	137.08
505.21	-304.92
505.334	-271.92
505.458	236.08
505.583	-373.92
505.707	-92.92
505.832	-241.92
505.956	-154.92
506.08	-294.92
506.205	-273.92
506.329	102.08
506.454	-357.92
506.578	-191.92
506.702	-313.92
506.827	125.08
506.951	-66.92
507.076	-181.92
507.2	-328.92
507.324	-33.92
507.449	59.08
507.573	-187.92
507.697	-236.92
507.822	-160.92
507.946	-188.92
508.07	-406.92
508.195	-214.92
508.319	-230.92
508.443	-152.92
508.567	-419.92
508.692	-359.92
508.816	-290.92
508.94	-158.92
509.065	-425.92
509.189	-85.92
509.313	-95.92
509.437	2.08
509.562	-232.92
509.686	-140.92
509.81	-232.92
509.935	-114.92
510.059	56.08
510.183	-322.92
510.307	-363.92
510.431	-9.92
510.556	-186.92
510.68	-280.92
510.804	-412.92
510.928	-183.92
511.053	-381.92
511.177	-375.92
511.301	-205.92
511.425	-249.92
511.549	-156.92
511.674	-155.92
511.798	-183.92
511.922	-89.92
512.046	151.08
512.17	-188.92
512.294	-353.92
512.419	-100.92
512.543	-56.92
512.667	-210.92
512.791	-325.92
512.915	-125.92
513.039	-190.92
513.163	-93.92
513.288	132.08
513.412	-239.92
513.536	43.08
513.66	-279.92
513.784	-189.92
513.908	-141.92
514.032	-144.92
514.156	7.08
514.28	-35.92
514.404	-188.92
514.528	-228.92
514.653	-51.92
514.777	-3.92
514.901	-104.92
515.025	112.08
515.149	-232.92
515.273	-110.92
515.397	-217.92
515.521	-185.92
515.645	-202.92
515.769	-327.92
515.893	-270.92
516.017	-273.92
516.141	-399.92
516.265	-241.92
516.389	-262.92
516.513	-197.92
516.637	-289.92
516.761	-461.92
516.885	-287.92
517.009	-212.92
517.133	-112.92
517.257	-243.92
517.381	-12.92
517.505	-35.92
517.629	79.08
517.753	-239.92
517.877	-341.92
518.001	-250.92
518.125	-235.92
518.248	-57.92
518.372	-161.92
518.496	-397.92
518.62	-101.92
518.744	-188.92
518.868	-139.92
518.992	-133.92
519.116	-338.92
519.24	378.08
519.364	39.08
519.488	-172.92
519.611	-435.92
519.735	-209.92
519.859	-224.92
519.983	-30.92
520.107	-235.92
520.231	16.08
520.355	-157.92
520.478	-295.92
520.602	-309.92
520.726	57.08
520.85	-229.92
520.974	12.08
521.098	-271.92
521.221	-328.92
521.345	68.08
521.469	-268.92
521.593	-235.92
521.717	22.08
521.84	-171.92
521.964	-290.92
522.088	-257.92
522.212	-228.92
522.335	-410.92
522.459	-286.92
522.583	205.08
522.707	-375.92
522.83	-420.92
522.954	-320.92
523.078	-276.92
523.202	-14.92
523.325	-239.92
523.449	-156.92
523.573	-178.92
523.697	-265.92
523.82	-186.92
523.944	-213.92
524.068	-200.92
524.191	-251.92
524.315	-399.92
524.439	-156.92
524.562	-61.92
524.686	-257.92
524.81	-339.92
524.933	-263.92
525.057	-250.92
525.181	-110.92
525.304	-360.92
525.428	78.08
525.552	-363.92
525.675	-192.92
525.799	-295.92
525.923	-130.92
526.046	-70.92
526.17	-406.92
526.293	-356.92
526.417	-151.92
526.541	1.08
526.664	-248.92
526.788	-213.92
526.911	-72.92
527.035	-350.92
527.159	-259.92
527.282	-257.92
527.406	-281.92
527.529	-52.92
527.653	-349.92
527.776	-110.92
527.9	-257.92
528.024	-283.92
528.147	-238.92
528.271	18.08
528.394	1.08
528.518	13.08
528.641	-379.92
528.765	-126.92
528.888	-154.92
529.012	-108.92
529.135	-252.92
529.259	76.08
529.382	-211.92
529.506	-319.92
529.629	-100.92
529.753	-371.92
529.876	94.08
530	38.08
530.123	-166.92
530.247	-300.92
530.37	-246.92
530.493	-166.92
530.617	-305.92
530.74	31.08
530.864	-49.92
530.987	-365.92
531.111	-94.92
531.234	-315.92
531.357	7.08
531.481	-2.92
531.604	28.08
531.728	-367.92
531.851	-129.92
531.974	-82.92
532.098	-219.92
532.221	-288.92
532.345	-221.92
532.468	-381.92
532.591	156.08
532.715	-192.92
532.838	-262.92
532.961	-198.92
533.085	-305.92
533.208	-170.92
533.331	-385.92
533.455	-11.92
533.578	-244.92
533.701	-137.92
533.825	18.08
533.948	-284.92
534.071	-232.92
534.195	-80.92
534.318	-362.92
534.441	-283.92
534.564	-86.92
534.688	-250.92
534.811	-29.92
534.934	-222.92
535.058	-115.92
535.181	56.08
535.304	-30.92
535.427	-273.92
535.551	-383.92
535.674	-220.92
535.797	-63.92
535.92	-41.92
536.043	-355.92
536.167	-343.92
536.29	-104.92
536.413	-147.92
536.536	-314.92
536.66	-258.92
536.783	-79.92
536.906	-183.92
537.029	-257.92
537.152	-268.92
537.275	-200.92
537.399	111.08
537.522	-444.92
537.645	-220.92
537.768	-250.92
537.891	-123.92
538.014	-190.92
538.138	-283.92
538.261	-230.92
538.384	-137.92
538.507	-338.92
538.63	-256.92
538.753	164.08
538.876	-136.92
538.999	-345.92
539.123	-77.92
539.246	195.08
539.369	218.08
539.492	-294.92
539.615	-354.92
539.738	170.08
539.861	-262.92
539.984	-183.92
540.107	-107.92
540.23	-251.92
540.353	-320.92
540.476	-463.92
540.599	-59.92
540.722	-332.92
540.846	-152.92
540.969	-440.92
541.092	-147.92
541.215	-346.92
541.338	-150.92
541.461	-370.92
541.584	-186.92
541.707	-198.92
541.83	-259.92
541.953	-149.92
542.076	-91.92
542.199	-157.92
542.322	98.08
542.445	119.08
542.567	-279.92
542.69	-139.92
542.813	-237.92
542.936	-67.92
543.059	-150.92
543.182	257.08
543.305	41.08
543.428	-97.92
543.551	-204.92
543.674	118.08
543.797	-64.92
543.92	-223.92
544.043	257.08
544.166	-323.92
544.288	-214.92
544.411	-99.92
544.534	-319.92
544.657	-111.92
544.78	-232.92
544.903	-72.92
545.026	-197.92
545.149	-302.92
545.271	-329.92
545.394	-250.92
545.517	-379.92
545.64	394.08
545.763	-244.92
545.886	-283.92
546.008	-115.92
546.131	-3.92
546.254	-208.92
546.377	-388.92
546.5	-61.92
546.623	-46.92
546.745	-354.92
546.868	-197.92
546.991	37.08
547.114	-138.92
547.236	-198.92
547.359	-302.92
547.482	-109.92
547.605	-259.92
547.728	-244.92
547.85	-343.92
547.973	-269.92
548.096	-201.92
548.219	-90.92
548.341	-213.92
548.464	-379.92
548.587	-162.92
548.709	-216.92
548.832	-167.92
548.955	274.08
549.078	-9.92
549.2	-307.92
549.323	-231.92
549.446	166.08
549.568	-169.92
549.691	-82.92
549.814	-40.92
549.936	-247.92
550.059	-227.92
550.182	-359.92
550.304	-408.92
550.427	-150.92
550.55	-246.92
550.672	-297.92
550.795	273.08
550.917	-296.92
551.04	-178.92
551.163	-103.92
551.285	83.08
551.408	25.08
551.531	321.08
551.653	-361.92
551.776	-108.92
551.898	-89.92
552.021	-115.92
552.143	-179.92
552.266	-192.92
552.389	-187.92
552.511	-364.92
552.634	-380.92
552.756	-308.92
552.879	222.08
553.001	41.08
553.124	-397.92
553.246	-308.92
553.369	71.08
553.492	-192.92
553.614	17.08
553.737	-470.92
553.859	-35.92
553.982	20.08
554.104	-137.92
554.227	-347.92
554.349	-196.92
554.472	-198.92
554.594	-470.92
554.716	36.08
554.839	-49.92
554.961	-118.92
555.084	-345.92
555.206	-129.92
555.329	-358.92
555.451	-337.92
555.574	-107.92
555.696	-312.92
555.819	-138.92
555.941	-171.92
556.063	-51.92
556.186	-204.92
556.308	-88.92
556.431	215.08
556.553	-17.92
556.675	-276.92
556.798	-213.92
556.92	-6.92
557.043	-279.92
557.165	-382.92
557.287	20.08
557.41	-213.92
557.532	-161.92
557.654	-234.92
557.777	22.08
557.899	-200.92
558.021	-219.92
558.144	86.08
558.266	38.08
558.388	238.08
558.511	-245.92
558.633	-160.92
558.755	-253.92
558.878	-286.92
559	-27.92
559.122	-423.92
559.244	-267.92
559.367	-219.92
559.489	23.08
559.611	125.08
559.734	-160.92
559.856	-130.92
559.978	-167.92
560.1	-165.92
560.223	-178.92
560.345	49.08
560.467	-365.92
560.589	-227.92
560.712	-221.92
560.834	211.08
560.956	-338.92
561.078	-213.92
561.2	-117.92
561.323	94.08
561.445	-383.92
561.567	-269.92
561.689	-312.92
561.811	-64.92
561.934	-221.92
562.056	-206.92
562.178	-77.92
562.3	-215.92
562.422	-100.92
562.544	-148.92
562.666	16.08
562.789	-118.92
562.911	-166.92
563.033	-42.92
563.155	-29.92
563.277	-257.92
563.399	-462.92
563.521	-246.92
563.643	-312.92
563.766	-151.92
563.888	13.08
564.01	-142.92
564.132	-302.92
564.254	-357.92
564.376	33.08
564.498	-146.92
564.62	119.08
564.742	-142.92
564.864	-402.92
564.986	-165.92
565.108	243.08
565.23	-269.92
565.352	-17.92
565.474	-102.92
565.597	140.08
565.719	112.08
565.841	-342.92
565.963	-103.92
566.085	-106.92
566.207	-188.92
566.329	8.08
566.451	10.08
566.573	-207.92
566.695	-222.92
566.817	160.08
566.938	-347.92
567.06	-192.92
567.182	-129.92
567.304	-167.92
567.426	-353.92
567.548	41.08
567.67	-114.92
567.792	-194.92
567.914	-270.92
568.036	-155.92
568.158	-153.92
568.28	-304.92
568.402	-58.92
568.524	-206.92
568.646	-287.92
568.767	-222.92
568.889	31.08
569.011	-176.92
569.133	-262.92
569.255	-403.92
569.377	-322.92
569.499	-129.92
569.621	-230.92
569.742	207.08
569.864	22.08
569.986	326.08
570.108	-9.92
570.23	-341.92
570.352	65.08
570.473	-94.92
570.595	-201.92
570.717	-341.92
570.839	-158.92
570.961	-4.92
571.082	-179.92
571.204	-310.92
571.326	-279.92
571.448	18.08
571.57	30.08
571.691	-142.92
571.813	-108.92
571.935	12.08
572.057	-163.92
572.178	-310.92
572.3	75.08
572.422	127.08
572.544	191.08
572.665	-285.92
572.787	-308.92
572.909	104.08
573.031	-39.92
573.152	-369.92
573.274	-51.92
573.396	-32.92
573.517	-50.92
573.639	-440.92
573.761	-280.92
573.882	-156.92
574.004	-21.92
574.126	-290.92
574.247	-17.92
574.369	-14.92
574.491	-143.92
574.612	-309.92
574.734	-147.92
574.856	-145.92
574.977	-35.92
575.099	-108.92
575.221	-128.92
575.342	-192.92
575.464	-130.92
575.585	-71.92
575.707	-296.92
575.829	83.08
575.95	52.08
576.072	-231.92
576.193	-295.92
576.315	-189.92
576.437	-202.92
576.558	-192.92
576.68	-206.92
576.801	187.08
576.923	-321.92
577.044	69.08
577.166	-386.92
577.287	-122.92
577.409	-185.92
577.531	-182.92
577.652	-49.92
577.774	-371.92
577.895	-153.92
578.017	-305.92
578.138	-271.92
578.26	-206.92
578.381	-50.92
578.503	-257.92
578.624	-250.92
578.746	-346.92
578.867	-205.92
578.988	-105.92
579.11	133.08
579.231	-98.92
579.353	-218.92
579.474	-164.92
579.596	-217.92
579.717	41.08
579.839	-125.92
579.96	-446.92
580.081	-67.92
580.203	-184.92
580.324	-107.92
580.446	-41.92
580.567	-155.92
580.688	174.08
580.81	-304.92
580.931	-203.92
581.053	-390.92
581.174	-137.92
581.295	-228.92
581.417	-56.92
581.538	-49.92
581.659	-21.92
581.781	-138.92
581.902	-258.92
582.024	-332.92
582.145	-308.92
582.266	-257.92
582.388	-160.92
582.509	-352.92
582.63	-135.92
582.751	-226.92
582.873	-228.92
582.994	-243.92
583.115	-207.92
583.237	-72.92
583.358	-281.92
583.479	-411.92
583.6	36.08
583.722	-157.92
583.843	-321.92
583.964	72.08
584.086	-214.92
584.207	-63.92
584.328	-312.92
584.449	-69.92
584.57	-123.92
584.692	-131.92
584.813	826.08
584.934	-132.92
585.055	-288.92
585.177	-20.92
585.298	-133.92
585.419	-352.92
585.54	184.08
585.661	-29.92
585.783	-121.92
585.904	-259.92
586.025	54.08
586.146	-296.92
586.267	-246.92
586.388	-167.92
586.51	264.08
586.631	-306.92
586.752	-357.92
586.873	-219.92
586.994	-333.92
587.115	-322.92
587.236	-262.92
587.357	-380.92
587.479	-293.92
587.6	53.08
587.721	-229.92
587.842	-316.92
587.963	125.08
588.084	76.08
588.205	-313.92
588.326	-217.92
588.447	-153.92
588.568	-201.92
588.689	-160.92
588.81	-82.92
588.931	-197.92
589.052	-264.92
589.174	-301.92
589.295	-98.92
589.416	-96.92
589.537	15.08
589.658	-239.92
589.779	-381.92
589.9	51.08
590.021	-232.92
590.142	-236.92
590.263	-405.92
590.384	-151.92
590.505	175.08
590.626	-324.92
590.747	-127.92
590.867	-40.92
590.988	-22.92
591.109	-201.92
591.23	45.08
591.351	-6.92
591.472	-169.92
591.593	-230.92
591.714	-119.92
591.835	-202.92
591.956	-217.92
592.077	-419.92
592.198	-180.92
592.319	-84.92
592.44	-13.92
592.56	-284.92
592.681	-359.92
592.802	-78.92
592.923	-197.92
593.044	-310.92
593.165	-344.92
593.286	-52.92
593.407	-264.92
593.527	-18.92
593.648	-320.92
593.769	-40.92
593.89	82.08
594.011	-155.92
594.132	-246.92
594.252	-108.92
594.373	-288.92
594.494	-418.92
594.615	-201.92
594.736	-228.92
594.856	77.08
594.977	-329.92
595.098	-97.92
595.219	-301.92
595.34	-106.92
595.46	-328.92
595.581	174.08
595.702	-156.92
595.823	-322.92
595.943	-91.92
596.064	-166.92
596.185	141.08
596.306	-392.92
596.426	-288.92
596.547	-370.92
596.668	-81.92
596.788	-101.92
596.909	-145.92
597.03	-87.92
597.151	-137.92
597.271	-265.92
597.392	-201.92
597.513	-93.92
597.633	-14.92
597.754	-118.92
597.875	-175.92
597.995	109.08
598.116	-103.92
598.237	-203.92
598.357	-275.92
598.478	-327.92
598.599	172.08
598.719	-161.92
598.84	-343.92
598.96	-267.92
599.081	-135.92
599.202	-165.92
599.322	-313.92
599.443	-328.92
599.563	-57.92
599.684	37.08
599.805	-247.92
599.925	-373.92
600.046	209.08
600.166	-176.92
600.287	-99.92
600.407	-177.92
600.528	30.08
600.649	-32.92
600.769	-143.92
600.89	-367.92
601.01	-15.92
601.131	-247.92
601.251	115.08
601.372	-125.92
601.492	-219.92
601.613	-253.92
601.733	-263.92
601.854	203.08
601.974	293.08
602.095	124.08
602.215	-345.92
602.336	-357.92
602.456	242.08
602.577	-253.92
602.697	676.08
602.817	-17.92
602.938	-135.92
603.058	-31.92
603.179	-342.92
603.299	-344.92
603.42	-335.92
603.54	-75.92
603.66	-333.92
603.781	-128.92
603.901	-208.92
604.022	109.08
604.142	-172.92
604.262	-137.92
604.383	-262.92
604.503	105.08
604.624	-263.92
604.744	-131.92
604.864	-50.92
604.985	-202.92
605.105	-129.92
605.225	-141.92
605.346	-146.92
605.466	24.08
605.586	192.08
605.707	261.08
605.827	-326.92
605.947	-145.92
606.068	-200.92
606.188	-197.92
606.308	-238.92
606.429	78.08
606.549	-209.92
606.669	-363.92
606.789	-262.92
606.91	-55.92
607.03	-293.92
607.15	-260.92
607.27	-108.92
607.391	9.08
607.511	-285.92
607.631	-288.92
607.751	160.08
607.872	1.08
607.992	-341.92
608.112	10.08
608.232	-271.92
608.353	-299.92
608.473	-253.92
608.593	94.08
608.713	321.08
608.833	-140.92
608.954	-284.92
609.074	-233.92
609.194	-311.92
609.314	206.08
609.434	-46.92
609.554	-168.92
609.675	158.08
609.795	-233.92
609.915	-311.92
610.035	275.08
610.155	-161.92
610.275	-208.92
610.395	-42.92
610.516	-351.92
610.636	-114.92
610.756	-48.92
610.876	-30.92
610.996	-327.92
611.116	169.08
611.236	-309.92
611.356	-287.92
611.476	-167.92
611.596	-93.92
611.716	91.08
611.836	-316.92
611.957	-334.92
612.077	-124.92
612.197	-51.92
612.317	-291.92
612.437	72.08
612.557	47.08
612.677	-180.92
612.797	-124.92
612.917	-326.92
613.037	-17.92
613.157	-113.92
613.277	-131.92
613.397	126.08
613.517	154.08
613.637	-224.92
613.757	-171.92
613.877	-268.92
613.997	-90.92
614.117	-230.92
614.237	-233.92
614.356	-120.92
614.476	36.08
614.596	28.08
614.716	-165.92
614.836	-231.92
614.956	-25.92
615.076	-96.92
615.196	-334.92
615.316	-125.92
615.436	-39.92
615.556	162.08
615.676	199.08
615.795	-67.92
615.915	-98.92
616.035	-242.92
616.155	-172.92
616.275	-287.92
616.395	-176.92
616.515	6.08
616.635	-426.92
616.754	-422.92
616.874	-8.92
616.994	-122.92
617.114	248.08
617.234	28.08
617.354	24.08
617.473	357.08
617.593	-234.92
617.713	-161.92
617.833	-40.92
617.953	-71.92
618.072	-462.92
618.192	-265.92
618.312	87.08
618.432	56.08
618.551	-306.92
618.671	-281.92
618.791	-10.92
618.911	-91.92
619.03	-170.92
619.15	-135.92
619.27	-164.92
619.39	-239.92
619.509	-163.92
619.629	-213.92
619.749	-263.92
619.868	-94.92
619.988	-375.92
620.108	-222.92
620.228	707.08
620.347	-89.92
620.467	-295.92
620.587	-305.92
620.706	65.08
620.826	-247.92
620.946	-309.92
621.065	-22.92
621.185	265.08
621.305	-196.92
621.424	-205.92
621.544	-399.92
621.663	-59.92
621.783	-194.92
621.903	194.08
622.022	-323.92
622.142	-130.92
622.261	183.08
622.381	-136.92
622.501	-85.92
622.62	-174.92
622.74	-103.92
622.859	-210.92
622.979	68.08
623.099	-191.92
623.218	-23.92
623.338	150.08
623.457	-70.92
623.577	-219.92
623.696	-60.92
623.816	-408.92
623.935	-300.92
624.055	-245.92
624.174	-109.92
624.294	-173.92
624.413	-377.92
624.533	-60.92
624.652	98.08
624.772	-287.92
624.891	-398.92
625.011	29.08
625.13	-180.92
625.25	-350.92
625.369	-244.92
625.489	-199.92
625.608	-253.92
625.728	-207.92
625.847	-152.92
625.966	-282.92
626.086	-251.92
626.205	-369.92
626.325	-90.92
626.444	-104.92
626.564	159.08
626.683	25.08
626.802	-13.92
626.922	145.08
627.041	-21.92
627.161	-178.92
627.28	4.08
627.399	30.08
627.519	-99.92
627.638	-400.92
627.757	-321.92
627.877	-150.92
627.996	-163.92
628.115	-57.92
628.235	-24.92
628.354	-337.92
628.473	-103.92
628.593	108.08
628.712	-152.92
628.831	-130.92
628.951	-304.92
629.07	77.08
629.189	-136.92
629.309	-150.92
629.428	216.08
629.547	-363.92
629.666	-54.92
629.786	-107.92
629.905	-295.92
630.024	-18.92
630.143	-104.92
630.263	-124.92
630.382	244.08
630.501	-202.92
630.62	-244.92
630.74	-295.92
630.859	90.08
630.978	-182.92
631.097	-351.92
631.216	-273.92
631.336	166.08
631.455	-283.92
631.574	-218.92
631.693	-58.92
631.812	-159.92
631.932	-419.92
632.051	71.08
632.17	269.08
632.289	29.08
632.408	-244.92
632.527	-153.92
632.646	-96.92
632.766	-259.92
632.885	144.08
633.004	-350.92
633.123	-146.92
633.242	-223.92
633.361	631.08
633.48	-280.92
633.599	-238.92
633.718	50.08
633.838	-102.92
633.957	-384.92
634.076	-60.92
634.195	-152.92
634.314	-54.92
634.433	-15.92
634.552	-225.92
634.671	-80.92
634.79	157.08
634.909	70.08
635.028	-72.92
635.147	0.08
635.266	-271.92
635.385	-111.92
635.504	-334.92
635.623	-60.92
635.742	-371.92
635.861	-370.92
635.98	-101.92
636.099	-228.92
636.218	-161.92
636.337	-132.92
636.456	272.08
636.575	9.08
636.694	-137.92
636.813	-378.92
636.932	-313.92
637.051	-110.92
637.17	-392.92
637.289	-137.92
637.408	-339.92
637.526	-103.92
637.645	-470.92
637.764	-346.92
637.883	-198.92
638.002	39.08
638.121	339.08
638.24	-288.92
638.359	55.08
638.478	-188.92
638.597	-308.92
638.715	346.08
638.834	-149.92
638.953	1.08
639.072	-341.92
639.191	-374.92
639.31	14.08
639.428	-120.92
639.547	-113.92
639.666	4.08
639.785	-26.92
639.904	-90.92
640.023	-378.92
640.141	-206.92
640.26	-136.92
640.379	-10.92
640.498	-420.92
640.616	-108.92
640.735	-116.92
640.854	73.08
640.973	-336.92
641.092	-12.92
641.21	-52.92
641.329	-122.92
641.448	-11.92
641.567	206.08
641.685	-126.92
641.804	-149.92
641.923	-143.92
642.041	-293.92
642.16	-157.92
642.279	75.08
642.398	-223.92
642.516	-310.92
642.635	127.08
642.754	-183.92
642.872	22.08
642.991	26.08
643.11	-220.92
643.228	-298.92
643.347	-369.92
643.466	-355.92
643.584	52.08
643.703	249.08
643.821	-143.92
643.94	-123.92
644.059	-26.92
644.177	52.08
644.296	-321.92
644.415	-245.92
644.533	-58.92
644.652	6.08
644.77	-367.92
644.889	-320.92
645.008	27.08
645.126	-245.92
645.245	-35.92
645.363	33.08
645.482	-68.92
645.6	-159.92
645.719	-195.92
645.837	-228.92
645.956	-69.92
646.074	-288.92
646.193	-307.92
646.312	-31.92
646.43	138.08
646.549	248.08
646.667	-451.92
646.786	-327.92
646.904	27.08
647.023	-39.92
647.141	-329.92
647.26	-41.92
647.378	454.08
647.496	-151.92
647.615	-100.92
647.733	-116.92
647.852	228.08
647.97	-219.92
648.089	-6.92
648.207	-50.92
648.326	129.08
648.444	-142.92
648.562	-182.92
648.681	-68.92
648.799	-131.92
648.918	-79.92
649.036	-141.92
649.154	-242.92
649.273	79.08
649.391	-175.92
649.51	-302.92
649.628	-344.92
649.746	198.08
649.865	-187.92
649.983	-292.92
650.101	-138.92
650.22	-121.92
650.338	-216.92
650.456	-207.92
650.575	-237.92
650.693	-281.92
650.811	-18.92
650.93	-364.92
651.048	1113.08
651.166	328.08
651.285	-139.92
651.403	-54.92
651.521	-106.92
651.639	-130.92
651.758	-145.92
651.876	206.08
651.994	-326.92
652.112	93.08
652.231	-99.92
652.349	-284.92
652.467	-469.92
652.585	-116.92
652.704	-34.92
652.822	-429.92
652.94	-383.92
653.058	-50.92
653.176	-233.92
653.295	-136.92
653.413	-13.92
653.531	-233.92
653.649	-122.92
653.767	-292.92
653.886	-328.92
654.004	-246.92
654.122	140.08
654.24	-363.92
654.358	-325.92
654.476	-117.92
654.594	187.08
654.713	-207.92
654.831	-428.92
654.949	-181.92
655.067	-6.92
655.185	-374.92
655.303	-216.92
655.421	-163.92
655.539	123.08
655.658	-128.92
655.776	-226.92
655.894	48.08
656.012	208.08
656.13	-409.92
656.248	-219.92
656.366	-225.92
656.484	-150.92
656.602	-338.92
656.72	-287.92
656.838	-20.92
656.956	-154.92
657.074	-63.92
657.192	-119.92
657.31	-211.92
657.428	-169.92
657.546	-131.92
657.664	-146.92
657.782	-145.92
657.9	105.08
658.018	-236.92
658.136	-185.92
658.254	64.08
658.372	111.08
658.49	-328.92
658.608	-310.92
658.726	-36.92
658.844	-28.92
658.962	-258.92
659.08	-362.92
659.198	-38.92
659.316	-97.92
